#
# Q1422+2307 (z=3.62) - spectrum from William Keel, Univ. of Alabama
#
# lam is restframe (emitted) wavelength in Angstroms
# flux is arbitrary units
#
 lam            flux
 824.8000       41359.95
 824.9010        47488.4
 825.0020       48019.32
 825.1030       60605.77
 825.2040        67690.8
 825.3050       84332.38
 825.4060        85833.6
 825.5070       88245.63
 825.6080       86716.92
 825.7090       78533.45
 825.8100       55941.92
 825.9110        51191.1
 826.0120         71453.
 826.1130       65864.61
 826.2140       65013.31
 826.3150        83970.8
 826.4160       82346.01
 826.5170       74029.79
 826.6180        66084.3
 826.7190       65200.97
 826.8200       75773.59
 826.9210       85179.09
 827.0220       78505.99
 827.1230       39249.99
 827.2240       23020.34
 827.3250       32924.73
 827.4260       26022.78
 827.5270       2602.825
 827.6280         1756.1
 827.7290       16937.65
 827.8300       39121.84
 827.9310       76991.05
 828.0320       95641.88
 828.1330       90904.79
 828.2340       91687.45
 828.3350       91618.79
 828.4360       94731.08
 828.5370       92035.27
 828.6380       83087.45
 828.7390       70986.16
 828.8400       74157.95
 828.9410       48170.35
 829.0420       1769.831
 829.1430       1106.181
 829.2440      -2244.103
 829.3450       666.7998
 829.4460        10351.5
 829.5470       48358.01
 829.6480       77952.19
 829.7490       80872.24
 829.8500       77160.39
 829.9510       83307.15
 830.0520       35922.59
 830.1530        913.952
 830.2540      -1141.072
 830.3550      -1557.569
 830.4560       -692.537
 830.5570       13656.02
 830.6580       7220.909
 830.7590       9747.353
 830.8600       35528.98
 830.9610       46600.48
 831.0620       49932.46
 831.1630       47749.28
 831.2640       43318.85
 831.3650       74684.28
 831.4660       86515.55
 831.5670       74643.09
 831.6680       72313.45
 831.7690       71933.58
 831.8700       49767.69
 831.9710       46948.32
 832.0720       54335.43
 832.1730       70240.13
 832.2740       81174.32
 832.3750       72272.27
 832.4760       41172.29
 832.5770        35149.1
 832.6780       34636.49
 832.7790       30897.17
 832.8800       22178.19
 832.9810        27107.5
 833.0820       62802.68
 833.1830       76693.54
 833.2840       80918.02
 833.3850       76194.66
 833.4860       44096.92
 833.5870       10969.38
 833.6880       1563.871
 833.7890       680.5305
 833.8900       15587.47
 833.9910       3563.972
 834.0920       6053.801
 834.1930       36718.97
 834.2940       32027.66
 834.3950       6960.025
 834.4960       -2115.95
 834.5970      -880.1895
 834.6980       1042.105
 834.7990       -184.502
 834.9000       900.2213
 835.0010       26123.47
 835.1020       42476.71
 835.2030       55296.57
 835.3040       46998.67
 835.4050       12333.29
 835.5060      -1406.532
 835.6070      -1951.182
 835.7080      -1287.533
 835.8090       71.80395
 835.9100      -784.0748
 836.0110      -907.6509
 836.1120       -1438.57
 836.2130      -1681.145
 836.3140       -1644.53
 836.4150      -216.5402
 836.5160      -1877.952
 836.6170       1463.179
 836.7180       39474.26
 836.8190       76277.04
 836.9200       77348.04
 837.0210       67457.38
 837.1220       40581.87
 837.2230       37995.93
 837.3240       59868.88
 837.4250        69059.3
 837.5260       71860.34
 837.6270       64981.27
 837.7280       59589.71
 837.8290       63026.95
 837.9300        60006.2
 838.0310       48289.36
 838.1320       39126.42
 838.2330       13189.17
 838.3340      -1855.067
 838.4350       1380.795
 838.5360      -239.4247
 838.6370       4726.502
 838.7380        32375.5
 838.8390        60994.8
 838.9400       78661.61
 839.0410        84922.8
 839.1420       76830.85
 839.2430       56491.14
 839.3440       51520.64
 839.4450       65594.58
 839.5460       63255.79
 839.6470       54019.62
 839.7480       47955.24
 839.8490       52051.56
 839.9500       67086.65
 840.0510       49186.43
 840.1520       10749.69
 840.2530       12365.33
 840.3540        44339.5
 840.4550        45190.8
 840.5560       39941.11
 840.6570       58518.71
 840.7580       76176.36
 840.8590       78830.95
 840.9600       79993.48
 841.0610       76245.02
 841.1620       70670.36
 841.2630        76881.2
 841.3640       71022.77
 841.4650       52834.21
 841.5660       48234.43
 841.6670       51598.45
 841.7680       48481.58
 841.8690       51960.02
 841.9700       58642.28
 842.0710       76240.43
 842.1720       82158.35
 842.2730       63232.91
 842.3740       39140.15
 842.4750       23002.03
 842.5760        39446.8
 842.6770       31103.13
 842.7780       23903.68
 842.8790       22471.11
 842.9800       63988.09
 843.0810       80561.02
 843.1820       74968.05
 843.2830       83806.02
 843.3840       86277.55
 843.4850       83847.23
 843.5860       81270.44
 843.6870       80744.09
 843.7880       79274.91
 843.8890       80501.52
 843.9900        72482.8
 844.0910       60802.57
 844.1920        51667.1
 844.2930       46229.76
 844.3940       31785.08
 844.4950        15244.2
 844.5960       33313.77
 844.6970       43090.01
 844.7980       48724.16
 844.8990       64880.58
 845.0000       68606.18
 845.1010       39867.88
 845.2020       4813.463
 845.3030      -408.7696
 845.4040       524.9162
 845.5050        39.7657
 845.6060       9147.779
 845.7070       64486.97
 845.8080       81627.44
 845.9090       79403.05
 846.0100       72697.92
 846.1110        77494.5
 846.2120       80030.11
 846.3130        81714.4
 846.4140        83316.3
 846.5150       87636.89
 846.6160        86286.7
 846.7170       67416.19
 846.8180       21665.58
 846.9190       19024.71
 847.0200       18850.79
 847.1210       45300.64
 847.2220       75984.13
 847.3230       77247.34
 847.4240       71649.81
 847.5250       75425.74
 847.6260       84606.98
 847.7270       81677.78
 847.8280       77132.92
 847.9290       52587.05
 848.0300       7344.483
 848.1310       1431.141
 848.2320       30714.09
 848.3330       76913.23
 848.4340       75668.31
 848.5350       69960.94
 848.6360       54138.63
 848.7370       27098.35
 848.8380        10113.5
 848.9390       14319.67
 849.0400       28746.03
 849.1410       56509.45
 849.2420       79686.83
 849.3430       85650.52
 849.4440       83957.06
 849.5450       72459.92
 849.6460       14209.82
 849.7470      -614.7298
 849.8480       12022.07
 849.9490       66152.95
 850.0500       79174.21
 850.1510       66157.55
 850.2520       33428.19
 850.3530       30869.71
 850.4540       60271.65
 850.5550       77192.42
 850.6560        68166.8
 850.7570       31441.82
 850.8580       3719.586
 850.9590       1513.525
 851.0600       2840.823
 851.1610       15843.77
 851.2620       2291.596
 851.3630       1280.103
 851.4640       13459.21
 851.5650       12388.22
 851.6660       14420.36
 851.7670       18443.45
 851.8680       48444.97
 851.9690       33684.49
 852.0700        2579.94
 852.1710        616.454
 852.2720       27624.69
 852.3730       81778.48
 852.4740       85609.33
 852.5750       62802.67
 852.6760       25578.82
 852.7770       27977.11
 852.8780        41922.9
 852.9790       58903.16
 853.0800       67301.77
 853.1810       47003.25
 853.2820       24681.75
 853.3830       28585.84
 853.4840       36760.16
 853.5850       32348.04
 853.6860       29354.76
 853.7870       18640.25
 853.8880       22855.57
 853.9890       61804.92
 854.0900       82876.92
 854.1910       77210.73
 854.2920       84135.58
 854.3930       86465.21
 854.4940       86748.98
 854.5950       87783.35
 854.6960        90941.4
 854.7970       88813.16
 854.8980       89907.04
 854.9990       91582.17
 855.1000       93206.96
 855.2010       90730.87
 855.3020       76606.58
 855.4030       41973.24
 855.5040       36513.02
 855.6050       65841.73
 855.7060       70766.48
 855.8070       60431.85
 855.9080       63420.55
 856.0090       64967.55
 856.1100        47785.9
 856.2110       11280.61
 856.3120       12168.53
 856.4130       12836.75
 856.5140       8580.245
 856.6150       639.3385
 856.7160      -115.8486
 856.8170        -349.27
 856.9180      -582.6915
 857.0190      -1076.996
 857.1200      -404.1928
 857.2210      -1356.186
 857.3220       21271.96
 857.4230       17367.88
 857.5240       9468.161
 857.6250       10310.31
 857.7260        38595.5
 857.8270       65260.46
 857.9280       71013.62
 858.0290       70885.47
 858.1300       60175.54
 858.2310       26965.62
 858.3320        8955.55
 858.4330       12022.07
 858.5340       24324.75
 858.6350       56175.34
 858.7360        71393.5
 858.8370       76318.24
 858.9380       73288.34
 859.0390       80712.05
 859.1400       75187.74
 859.2410       45538.64
 859.3420       13491.25
 859.4430       396.7632
 859.5440       1728.639
 859.6450       3637.202
 859.7460       35432.87
 859.8470        68780.1
 859.9480        60065.7
 860.0490       15765.96
 860.1500       7431.445
 860.2510       47538.74
 860.3520       71686.41
 860.4530        64441.2
 860.5540       59095.39
 860.6550       57209.71
 860.7560       62729.45
 860.8570       58436.32
 860.9580       56060.91
 861.0590       23317.84
 861.1600       5504.574
 861.2610       21198.73
 861.3620       22704.53
 861.4630       13724.67
 861.5640       3371.743
 861.6650       4076.584
 861.7660       21670.15
 861.8670        45190.8
 861.9680       34682.25
 862.0690       28022.88
 862.1700       21830.35
 862.2710       11774.92
 862.3720        38339.2
 862.4730       18878.25
 862.5740       8868.591
 862.6750       11225.69
 862.7760         65828.
 862.8770       63658.56
 862.9780        21226.2
 863.0790       34302.38
 863.1800       44481.38
 863.2810       46188.56
 863.3820       42604.85
 863.4830       39680.23
 863.5840       26864.93
 863.6850       29112.18
 863.7860       27455.35
 863.8870       13198.33
 863.9880       7774.712
 864.0890       8049.326
 864.1900       51419.95
 864.2910       80043.83
 864.3920       80309.28
 864.4930       77045.97
 864.5940       60834.61
 864.6950       42051.05
 864.7960       21825.77
 864.8970       3861.469
 864.9980       3760.779
 865.0990       21322.31
 865.2000       54088.27
 865.3010       67727.41
 865.4020       60866.66
 865.5030       66450.46
 865.6040       71924.41
 865.7050       71517.08
 865.8060       66880.69
 865.9070       30100.79
 866.0080       1394.526
 866.1090      -829.8438
 866.2100        785.799
 866.3110       71.80396
 866.4120       4218.468
 866.5130       55781.73
 866.6140       79036.91
 866.7150        72839.8
 866.8160       51040.06
 866.9170       40847.33
 867.0180       37661.82
 867.1190       38233.93
 867.2200       47456.36
 867.3210       43900.12
 867.4220       28938.26
 867.5230       23157.64
 867.6240       4598.349
 867.7250       14882.63
 867.8260       56825.25
 867.9270       51941.71
 868.0280       28892.49
 868.1290        18452.6
 868.2300       22960.84
 868.3310       27972.54
 868.4320       11170.77
 868.5330      -660.4987
 868.6340      -1058.688
 868.7350      -326.3856
 868.8360       -440.808
 868.9370      -1401.955
 869.0380       433.3784
 869.1390       99.26528
 869.2400       6378.761
 869.3410       27807.77
 869.4420       53438.36
 869.5430       65622.04
 869.6440         66780.
 869.7450       54248.46
 869.8460       56568.95
 869.9470       16960.53
 870.0480        3861.47
 870.1490       30105.37
 870.2500       62605.88
 870.3510       51937.13
 870.4520        27601.8
 870.5530       4964.501
 870.6540       5275.729
 870.7550       6456.567
 870.8560      -1681.146
 870.9570      -962.5736
 871.0580       2882.015
 871.1590       40137.91
 871.2600       72084.61
 871.3610        76345.7
 871.4620       64660.89
 871.5630        43071.7
 871.6640       33062.04
 871.7650       54555.12
 871.8660       43108.31
 871.9670       1989.521
 872.0680      -1530.108
 872.1690       1129.066
 872.2700       2236.673
 872.3710       5449.651
 872.4720       5609.843
 872.5730      -1054.111
 872.6740       3161.206
 872.7750        35684.6
 872.8760        70226.4
 872.9770       76153.48
 873.0780        76286.2
 873.1790       75192.33
 873.2800       71933.58
 873.3810       68624.48
 873.4820       67796.06
 873.5830       74871.94
 873.6840       73279.18
 873.7850       68143.91
 873.8860       67397.88
 873.9870       69745.83
 874.0880        74542.4
 874.1890       62546.37
 874.2900       43904.69
 874.3910       55086.04
 874.4920       73114.41
 874.5930       68624.48
 874.6940       68061.52
 874.7950       70967.85
 874.8960       76926.97
 874.9970       76515.04
 875.0980       76382.31
 875.1990       76391.47
 875.3000       54518.51
 875.4010       45808.68
 875.5020       62944.55
 875.6030       75961.24
 875.7040       76258.73
 875.8050       74363.91
 875.9060        73256.3
 876.0070       64670.05
 876.1080       52500.09
 876.2090       48376.32
 876.3100        49767.7
 876.4110       25116.55
 876.5120      -655.9218
 876.6130       177.0724
 876.7140       112.9959
 876.8150       3060.514
 876.9160       4085.738
 877.0170       31862.89
 877.1180       58701.78
 877.2190       67008.84
 877.3200       72382.11
 877.4210       76771.35
 877.5220       77828.61
 877.6230       78368.68
 877.7240       79563.26
 877.8250       77705.05
 877.9260       75082.48
 878.0270       64651.74
 878.1280       72400.42
 878.2290       78423.61
 878.3300       73178.49
 878.4310       65562.54
 878.5320       49580.04
 878.6330       64761.59
 878.7340       65466.43
 878.8350       68798.41
 878.9360       60985.65
 879.0370        71494.2
 879.1380       67521.45
 879.2390       56147.88
 879.3400       69988.39
 879.4410       76272.48
 879.5420       78634.14
 879.6430       77128.34
 879.7440       75961.24
 879.8450       78258.84
 879.9460       78844.68
 880.0470       78231.38
 880.1480       74418.83
 880.2490       74386.78
 880.3500       73128.14
 880.4510       71732.19
 880.5520       73645.33
 880.6530       71631.51
 880.7540       62180.23
 880.8550        54715.3
 880.9560       48527.35
 881.0570       25501.01
 881.1580        20036.2
 881.2590        46893.4
 881.3600       71475.88
 881.4610       77567.73
 881.5620        77256.5
 881.6630       72711.64
 881.7640       66866.95
 881.8650       68359.02
 881.9660       73421.06
 882.0670        69828.2
 882.1680       59287.63
 882.2690       29478.33
 882.3700       19834.82
 882.4710        39744.3
 882.5720       33698.23
 882.6730       25711.55
 882.7740       45222.84
 882.8750       58537.01
 882.9760       40792.41
 883.0770        12292.1
 883.1780       968.8746
 883.2790       103.8422
 883.3800      -1122.765
 883.4810      -454.5386
 883.5820        2227.52
 883.6830       -1498.07
 883.7840       1408.256
 883.8850       8058.479
 883.9860       5101.808
 884.0870       3147.475
 884.1880       6653.374
 884.2890       23766.37
 884.3900       8031.019
 884.4910       254.8796
 884.5920       735.4532
 884.6930       28270.03
 884.7940       67594.68
 884.8950        67571.8
 884.9960       62747.75
 885.0970       59099.98
 885.1980       56774.91
 885.2990       52216.33
 885.4000       59035.89
 885.5010        63512.1
 885.6020       58468.36
 885.7030       60413.54
 885.8040        68304.1
 885.9050       70029.59
 886.0060       47991.86
 886.1070       14205.25
 886.2080       13472.94
 886.3090       50165.88
 886.4100       65466.43
 886.5110       56509.46
 886.6120       46893.41
 886.7130       52284.98
 886.8140       64633.44
 886.9150       67969.98
 887.0160       66743.38
 887.1170       49076.58
 887.2180       21221.62
 887.3190       22681.65
 887.4200       27112.08
 887.5210       27876.42
 887.6220       48275.62
 887.7230        49447.3
 887.8240       33341.23
 887.9250       16241.96
 888.0260       7280.408
 888.1270       1934.599
 888.2280       5939.379
 888.3290       24205.75
 888.4300       36975.28
 888.5310       25679.51
 888.6320       6104.147
 888.7330       9372.047
 888.8340       32723.35
 888.9350       37968.46
 889.0360       43849.77
 889.1370       51932.56
 889.2380       55086.04
 889.3390        44261.7
 889.4400       18978.94
 889.5410       378.4555
 889.6420        236.572
 889.7430      -1269.225
 889.8440       2973.553
 889.9450       1563.871
 890.0460       2840.823
 890.1470       28695.68
 890.2480       14241.86
 890.3490       1692.023
 890.4500       4433.581
 890.5510       11001.42
 890.6520       11422.49
 890.7530       12891.68
 890.8540       1875.099
 890.9550       19139.13
 891.0560       28050.34
 891.1570       42014.44
 891.2580       60752.23
 891.3590       66052.27
 891.4600       66400.12
 891.5610       64262.71
 891.6620       66638.11
 891.7630       63310.71
 891.8640       51044.64
 891.9650       21038.54
 892.0660       4905.002
 892.1670       12662.83
 892.2680       35570.17
 892.3690       25414.05
 892.4700       895.6443
 892.5710       3715.009
 892.6720       39808.37
 892.7730       48289.36
 892.8740       49969.07
 892.9750       48943.85
 893.0760       41570.48
 893.1770       38668.73
 893.2780        48042.2
 893.3790       59104.55
 893.4800        54916.7
 893.5810        36238.4
 893.6820       16237.38
 893.7830       4753.964
 893.8840       5664.766
 893.9850       33062.04
 894.0860       56628.45
 894.1870       58907.74
 894.2880       33908.76
 894.3890       23954.02
 894.4900       48202.39
 894.5910       65123.16
 894.6920       67535.19
 894.7930       63338.17
 894.8940       48129.16
 894.9950       43657.54
 895.0960       55722.23
 895.1970       58344.79
 895.2980       55401.84
 895.3990       49424.43
 895.5000       51127.02
 895.6010       60830.04
 895.7020       58646.86
 895.8030       61901.03
 895.9040       60280.81
 896.0050       60390.65
 896.1060        59411.2
 896.2070       59955.85
 896.3080       56459.11
 896.4090       46275.52
 896.5100       35492.37
 896.6110       33020.84
 896.7120       15939.89
 896.8130        3257.32
 896.9140      -349.2701
 897.0150       94.68839
 897.1160       511.1855
 897.2170       3664.664
 897.3180       5902.764
 897.4190       7760.982
 897.5200       6360.453
 897.6210       2923.207
 897.7220       3408.358
 897.8230       6850.181
 897.9240         16274.
 898.0250        43625.5
 898.1260       57150.22
 898.2270       50824.96
 898.3280       29853.63
 898.4290        6570.99
 898.5300        76.3808
 898.6310      -408.7696
 898.7320       1394.526
 898.8330       22040.88
 898.9340       48133.74
 899.0350        43012.2
 899.1360       50188.77
 899.2370       58157.14
 899.3380       58852.82
 899.4390       46261.79
 899.5400       40426.26
 899.6410       50326.07
 899.7420       55136.39
 899.8430       59937.54
 899.9440       62116.14
 900.0450       60733.93
 900.1460       62660.79
 900.2470       63113.91
 900.3480       63493.79
 900.4490       64660.89
 900.5500        64779.9
 900.6510       61978.84
 900.7520       62907.95
 900.8530       57186.83
 900.9540       54358.31
 901.0550       50367.26
 901.1560       57374.48
 901.2570       58418.01
 901.3580        60065.7
 901.4590       56276.02
 901.5600       47021.55
 901.6610       20493.89
 901.7620       22265.15
 901.8630       57186.83
 901.9640       64056.74
 902.0650       59621.74
 902.1660       58486.67
 902.2670       62308.38
 902.3680       60747.66
 902.4690       62399.91
 902.5700       60340.31
 902.6710       37135.47
 902.7720       23212.57
 902.8730        41327.9
 902.9740       56985.45
 903.0750       54188.98
 903.1760       49227.62
 903.2770       21294.85
 903.3780       181.6493
 903.4790      -372.1545
 903.5800      -24.31078
 903.6810        1476.91
 903.7820       19642.59
 903.8830       26425.54
 903.9840       23230.87
 904.0850         32316.
 904.1860       44490.54
 904.2870       53150.01
 904.3880       54399.51
 904.4890        54715.3
 904.5900       57141.06
 904.6910       49584.62
 904.7920       14370.01
 904.8930       18617.37
 904.9940       49616.65
 905.0950        60262.5
 905.1960       64601.39
 905.2970       65315.39
 905.3980       64020.13
 905.4990       57205.14
 905.6000       64294.74
 905.7010       62651.64
 905.8020       62390.76
 905.9030       56806.95
 906.0040       52564.18
 906.1050       48792.82
 906.2060       47630.28
 906.3070       51506.91
 906.4080       45236.57
 906.5090       36723.55
 906.6100       44925.34
 906.7110       49822.61
 906.8120       46229.76
 906.9130       51127.02
 907.0140        60006.2
 907.1150       52468.05
 907.2160       62775.21
 907.3170       65228.43
 907.4180       66276.55
 907.5190       61516.57
 907.6200       41694.05
 907.7210       33661.61
 907.8220       49451.88
 907.9230       47442.63
 908.0240       16374.69
 908.1250      -33.46458
 908.2260      -504.8844
 908.3270      -1058.688
 908.4280      -829.8438
 908.5290      -1003.766
 908.6300      -1195.995
 908.7310      -1708.607
 908.8320      -120.4255
 908.9330      -806.9592
 909.0340      -1273.802
 909.1350      -431.6541
 909.2360       -1086.15
 909.3370      -459.1154
 909.4380      -175.3482
 909.5390       4836.348
 909.6400       10401.85
 909.7410       15331.16
 909.8420       17665.37
 909.9430       5170.461
 910.0440       401.3401
 910.1450       2058.175
 910.2460       26860.35
 910.3470       61630.99
 910.4480       68743.48
 910.5490        69590.2
 910.6500       68272.07
 910.7510       67045.46
 910.8520       63891.98
 910.9530       55118.07
 911.0540       61109.23
 911.1550        69315.6
 911.2560       70652.05
 911.3570       71745.92
 911.4580        72363.8
 911.5590       71237.88
 911.6600       69159.98
 911.7610       64953.81
 911.8620       61150.42
 911.9630       58591.94
 912.0640       61283.15
 912.1650       63750.09
 912.2660       64226.09
 912.3670       63223.76
 912.4680       49767.69
 912.5690        28988.6
 912.6700       22617.57
 912.7710       37487.89
 912.8720       15294.54
 912.9730      -408.7697
 913.0740      -129.5793
 913.1750       1627.947
 913.2760       10324.04
 913.3770       48170.35
 913.4780       69796.17
 913.5790       73599.56
 913.6800        74661.4
 913.7810       74867.37
 913.8820       74679.71
 913.9830       72560.61
 914.0840       56221.11
 914.1850       27830.65
 914.2860       29858.21
 914.3870       46074.14
 914.4880       42110.55
 914.5890       54408.66
 914.6900       72139.55
 914.7910       73022.88
 914.8920       70501.02
 914.9930        70958.7
 915.0940       71622.34
 915.1950       70510.16
 915.2960       70551.36
 915.3970       71370.62
 915.4980        71393.5
 915.5990       71082.27
 915.7000       65150.63
 915.8010       64656.32
 915.9020       53296.47
 916.0030       54683.27
 916.1040        71590.3
 916.2050       64665.48
 916.3060       56308.07
 916.4070       46797.29
 916.5080       47126.82
 916.6090       53204.94
 916.7100       23642.79
 916.8110       11395.03
 916.9120       19477.82
 917.0130       2717.247
 917.1140      -573.5377
 917.2150      -893.9201
 917.3160      -134.1562
 917.4170       108.4191
 917.5180       4511.388
 917.6190       17029.19
 917.7200       36494.71
 917.8210        16768.3
 917.9220       181.6493
 918.0230      -1.426327
 918.1240       6094.993
 918.2250       40526.95
 918.3260       50376.42
 918.4270       57493.48
 918.5280       60450.16
 918.6290       59443.24
 918.7300       65901.23
 918.8310        72482.8
 918.9320       71283.66
 919.0330       71430.12
 919.1340       67896.76
 919.2350       56266.88
 919.3360       42623.16
 919.4370       59498.16
 919.5380       71100.58
 919.6390       72299.73
 919.7400       73141.87
 919.8410       72528.58
 919.9420       62395.33
 920.0430       57461.45
 920.1440       66793.73
 920.2450       62660.79
 920.3460       57626.21
 920.4470       46710.33
 920.5480       49401.54
 920.6490       42874.89
 920.7500       48097.12
 920.8510       64523.59
 920.9520       65489.31
 921.0530       66903.57
 921.1540       66903.58
 921.2550       65077.39
 921.3560       66134.65
 921.4570       67448.23
 921.5580       58999.27
 921.6590        64619.7
 921.7600       66395.54
 921.8610       67164.45
 921.9620       61498.26
 922.0630       44279.99
 922.1640       41057.87
 922.2650       48106.28
 922.3660       55241.65
 922.4670       58001.52
 922.5680        61470.8
 922.6690       59978.74
 922.7700       59713.27
 922.8710       37414.66
 922.9720       10497.96
 923.0730       17830.14
 923.1740       52651.14
 923.2750         60203.
 923.3760       57914.56
 923.4770       41790.17
 923.5780       24155.41
 923.6790       30462.36
 923.7800       48801.96
 923.8810       54120.31
 923.9820       54248.47
 924.0830       55420.15
 924.1840       51415.37
 924.2850       55136.38
 924.3860       57704.02
 924.4870       32846.92
 924.5880       35492.37
 924.6890       17418.22
 924.7900       21775.42
 924.8910       22635.88
 924.9920       24109.64
 925.0930       42472.13
 925.1940        57708.6
 925.2950       57983.21
 925.3960       44801.76
 925.4970       26480.47
 925.5980       34769.22
 925.6990       52326.17
 925.8000       60605.77
 925.9010        62738.6
 926.0020        61965.1
 926.1030       58582.78
 926.2040       57452.29
 926.3050        52815.9
 926.4060       51584.71
 926.5070       53918.93
 926.6080       54385.77
 926.7090       52651.13
 926.8100       35908.86
 926.9110       6699.143
 927.0120       16.88123
 927.1130       163.3417
 927.2140       945.9902
 927.3150       4104.045
 927.4160       13555.33
 927.5170       16219.08
 927.6180       309.8023
 927.7190      -619.3066
 927.8200      -802.3823
 927.9210      -738.3058
 928.0220       3962.162
 928.1230       24960.94
 928.2240       41250.09
 928.3250        39684.8
 928.4260       26576.58
 928.5270       13294.44
 928.6280       9861.775
 928.7290       8648.899
 928.8300       3614.318
 928.9310       337.2636
 929.0320      -166.1944
 929.1330       1454.025
 929.2340       6273.492
 929.3350      -60.92593
 929.4360      -244.0016
 929.5370       71.80394
 929.6380       85.53461
 929.7390       3161.206
 929.8400       35254.37
 929.9410       47341.93
 930.0420       52664.86
 930.1430       49570.88
 930.2440       39213.38
 930.3450       39295.76
 930.4460       50866.14
 930.5470       52678.59
 930.6480       58706.36
 930.7490       60994.81
 930.8500       60912.43
 930.9510        61292.3
 931.0520       59878.04
 931.1530       58537.01
 931.2540       58738.39
 931.3550       62775.21
 931.4560       64358.82
 931.5570       64290.16
 931.6580       65223.85
 931.7590       63699.74
 931.8600       60898.69
 931.9610       58312.75
 932.0620       61219.07
 932.1630       63502.95
 932.2640       64505.28
 932.3650       61901.02
 932.4660       61392.99
 932.5670       61489.11
 932.6680       63104.75
 932.7690       63612.79
 932.8700       61077.19
 932.9710       61704.23
 933.0720       62953.72
 933.1730       64523.59
 933.2740       62578.41
 933.3750       47419.75
 933.4760       32828.62
 933.5770       42275.32
 933.6780       56129.57
 933.7790       56312.65
 933.8800       54655.81
 933.9810       58385.98
 934.0820       56344.68
 934.1830       39391.88
 934.2840        45190.8
 934.3850       59662.93
 934.4860       54591.73
 934.5870       52660.29
 934.6880       48055.93
 934.7890       52641.98
 934.8900       60212.16
 934.9910       57150.22
 935.0920       49776.84
 935.1930       56422.49
 935.2940       58683.48
 935.3950       56395.03
 935.4960       56472.84
 935.5970       50472.53
 935.6980       52513.82
 935.7990       59800.24
 935.9000        53310.2
 936.0010        23285.8
 936.1020        2094.79
 936.2030       497.4549
 936.3040      -628.4604
 936.4050      -280.6167
 936.5060       3019.322
 936.6070       7847.943
 936.7080       8163.748
 936.8090        22155.3
 936.9100       48019.32
 937.0110       55529.99
 937.1120       54834.31
 937.2130       39689.38
 937.3140       12379.06
 937.4150       8269.017
 937.5160       25331.67
 937.6170       32018.51
 937.7180       13418.02
 937.8190       6488.605
 937.9200        26750.5
 938.0210       46472.32
 938.1220       52838.79
 938.2230       50138.42
 938.3240       45913.95
 938.4250       44009.96
 938.5260       39002.84
 938.6270       27372.96
 938.7280       2122.251
 938.8290      -33.46456
 938.9300      -115.8486
 939.0310       1692.023
 939.1320       11427.07
 939.2330       36805.93
 939.3340       28210.53
 939.4350       12319.57
 939.5360       7985.249
 939.6370       3710.433
 939.7380       5879.879
 939.8390       13971.82
 939.9400       21738.81
 940.0410       8593.975
 940.1420       332.6867
 940.2430       2813.362
 940.3440       3623.471
 940.4450       12026.64
 940.5460       19180.32
 940.6470       22228.54
 940.7480       10282.85
 940.8490       16077.19
 940.9500        24988.4
 941.0510       32933.88
 941.1520       55067.73
 941.2530       56033.45
 941.3540       53850.28
 941.4550       52619.09
 941.5560       57250.91
 941.6570       57786.41
 941.7580        54440.7
 941.8590        52637.4
 941.9600        57292.1
 942.0610       58651.44
 942.1620       58308.17
 942.2630       57909.98
 942.3640       57498.06
 942.4650       50655.61
 942.5660       34128.45
 942.6670       36206.36
 942.7680       40215.72
 942.8690       36133.13
 942.9700        19482.4
 943.0710       8694.667
 943.1720       8507.015
 943.2730       17697.41
 943.3740       34439.68
 943.4750       31043.63
 943.5760       10635.27
 943.6770       16113.81
 943.7780       31382.32
 943.8790       40568.14
 943.9800       34073.53
 944.0810       10896.15
 944.1820        8397.17
 944.2830       15495.93
 944.3840       14232.71
 944.4850       8223.247
 944.5860       11312.65
 944.6870       19258.13
 944.7880       6062.955
 944.8890       300.6485
 944.9900       21.45812
 945.0910      -408.7697
 945.1920      -367.5777
 945.2930       112.9959
 945.3940      -596.4222
 945.4950       8461.246
 945.5960       34503.76
 945.6970       40806.14
 945.7980       45877.33
 945.8990       46984.94
 946.0000       38494.81
 946.1010       20324.55
 946.2020       7005.794
 946.3030       9513.932
 946.4040       37588.59
 946.5050        54440.7
 946.6060       55086.04
 946.7070       54353.74
 946.8080        53786.2
 946.9090       55314.89
 947.0100       54340.01
 947.1110       48737.89
 947.2120       42783.35
 947.3130       29903.98
 947.4140       28604.15
 947.5150       32801.15
 947.6160       34966.02
 947.7170       38320.88
 947.8180       44563.77
 947.9190       49584.61
 948.0200       51946.29
 948.1210       52701.48
 948.2220        45190.8
 948.3230       31496.74
 948.4240       22356.69
 948.5250       17967.45
 948.6260       24146.25
 948.7270       27075.46
 948.8280       41671.17
 948.9290       49538.85
 949.0300       47662.32
 949.1310       46179.41
 949.2320        46161.1
 949.3330       45099.26
 949.4340       20713.58
 949.5350       465.4166
 949.6360      -106.6948
 949.7370      -285.1936
 949.8380       190.8031
 949.9390       859.0293
 950.0400        19601.4
 950.1410       34421.37
 950.2420        27583.5
 950.3430       10086.04
 950.4440       5106.384
 950.5450       12713.18
 950.6460       15642.39
 950.7470       9930.428
 950.8480       9989.928
 950.9490       28819.26
 951.0500       38627.54
 951.1510       29400.52
 951.2520       16919.34
 951.3530       4616.657
 951.4540       18722.64
 951.5550       42046.47
 951.6560       35872.25
 951.7570       34782.95
 951.8580       43479.04
 951.9590       45076.38
 952.0600       49195.58
 952.1610       49891.27
 952.2620       51090.41
 952.3630       51374.18
 952.4640        51548.1
 952.5650       51506.91
 952.6660        50696.8
 952.7670       49181.85
 952.8680       46920.86
 952.9690       46902.55
 953.0700       48586.85
 953.1710       47438.05
 953.2720       45987.18
 953.3730       43794.85
 953.4740       41826.78
 953.5750       41611.68
 953.6760       46403.68
 953.7770       50120.11
 953.8780       48055.93
 953.9790       41451.48
 954.0800       32444.16
 954.1810       28590.41
 954.2820       42348.55
 954.3830       47424.32
 954.4840       48426.66
 954.5850       47346.52
 954.6860       44870.41
 954.7870       36261.29
 954.8880        36119.4
 954.9890       45067.23
 955.0900       48486.16
 955.1910       48165.78
 955.2920       44961.95
 955.3930       42801.66
 955.4940       41231.79
 955.5950       38279.69
 955.6960       25661.21
 955.7970       5179.615
 955.8980      -170.7713
 955.9990      -376.7314
 956.1000      -152.4637
 956.2010      -120.4255
 956.3020      -15.15701
 956.4030      -276.0398
 956.5040      -65.50282
 956.6050       94.68839
 956.7060      -257.7323
 956.8070       -477.423
 956.9080      -303.5012
 957.0090      -70.07969
 957.1100       80.95771
 957.2110      -106.6948
 957.3120      -38.04146
 957.4130       8269.017
 957.5140       39286.61
 957.6150       37799.12
 957.7160       27244.81
 957.8170       29926.87
 957.9180       29313.56
 958.0190       23345.29
 958.1200       32023.08
 958.2210       38920.46
 958.3220       41579.63
 958.4230       45373.88
 958.5240       45588.99
 958.6250       43579.74
 958.7260       18008.64
 958.8270        1211.45
 958.9280      -422.5003
 959.0290       190.8031
 959.1300      -47.19524
 959.2310       3133.745
 959.3320       13710.94
 959.4330       24846.52
 959.5340       32444.16
 959.6350       38938.77
 959.7360       41872.55
 959.8370       43277.66
 959.9380       33588.38
 960.0390        7719.79
 960.1400       1399.102
 960.2410       11514.03
 960.3420       37483.32
 960.4430       48312.24
 960.5440       49383.23
 960.6450       50737.99
 960.7460        50161.3
 960.8470       48124.59
 960.9480       43355.47
 961.0490       39222.54
 961.1500       41419.45
 961.2510       44449.34
 961.3520       46312.14
 961.4530       47419.75
 961.5540       47717.24
 961.6550       45941.41
 961.7560       43987.08
 961.8570       40957.18
 961.9580       35533.56
 962.0590       16965.11
 962.1600       3559.395
 962.2610       11518.61
 962.3620        17244.3
 962.4630       6035.493
 962.5640       5358.114
 962.6650       18068.14
 962.7660       37620.62
 962.8670        44357.8
 962.9680       37281.93
 963.0690       30759.86
 963.1700       40792.41
 963.2710       47396.86
 963.3720       44119.81
 963.4730       30544.75
 963.5740       25661.21
 963.6750       26965.62
 963.7760       26608.62
 963.8770       36027.86
 963.9780       37680.12
 964.0790       39318.65
 964.1800       35181.13
 964.2810       28123.57
 964.3820       29968.06
 964.4830       28700.26
 964.5840       29858.21
 964.6850         33387.
 964.7860       36421.48
 964.8870       28512.61
 964.9880       24306.44
 965.0890       4383.236
 965.1900      -198.2327
 965.2910      -193.6557
 965.3920       9527.662
 965.4930       22466.54
 965.5940       29849.06
 965.6950       40494.91
 965.7960       41442.33
 965.8970       38883.84
 965.9980        43941.3
 966.0990       45968.87
 966.2000       44449.34
 966.3010       29510.37
 966.4020       8955.551
 966.5030       2950.668
 966.6040       10905.31
 966.7050       32343.46
 966.8060       30640.86
 966.9070       19523.59
 967.0080       5316.922
 967.1090       2438.057
 967.2100        7866.25
 967.3110       5266.575
 967.4120       13688.05
 967.5130       26938.15
 967.6140       22937.95
 967.7150       23597.03
 967.8160       30146.56
 967.9170       27812.34
 968.0180       30540.17
 968.1190       43337.16
 968.2200       49255.08
 968.3210       49062.84
 968.4220       49017.08
 968.5230       50046.88
 968.6240        51250.6
 968.7250       50916.49
 968.8260       48202.39
 968.9270       44440.19
 969.0280       44408.15
 969.1290        44655.3
 969.2300       40206.57
 969.3310       39849.57
 969.4320        36476.4
 969.5330       37817.43
 969.6340       34508.34
 969.7350       20658.66
 969.8360       19628.86
 969.9370       38572.61
 970.0380       44636.99
 970.1390       45373.88
 970.2400        43785.7
 970.3410       37886.07
 970.4420        17720.3
 970.5430       8465.822
 970.6440       16740.84
 970.7450       30288.44
 970.8460       27610.96
 970.9470       26160.08
 971.0480       16644.72
 971.1490       479.1473
 971.2500       12.30435
 971.3510       53.49637
 971.4520       254.8796
 971.5530       5779.188
 971.6540       28572.11
 971.7550        32494.5
 971.8560       32087.16
 971.9570       28242.57
 972.0580       28906.22
 972.1590       35872.25
 972.2600       43460.73
 972.3610       45936.84
 972.4620        45030.6
 972.5630       41341.64
 972.6640       36151.44
 972.7650       24855.67
 972.8660       22237.69
 972.9670       33162.73
 973.0680       40819.87
 973.1690        44083.2
 973.2700       44151.84
 973.3710       44975.68
 973.4720       41181.44
 973.5730       27908.46
 973.6740       21157.54
 973.7750       27981.69
 973.8760       34265.76
 973.9770       16937.65
 974.0780       4145.237
 974.1790       9802.275
 974.2800       26086.86
 974.3810       40778.68
 974.4820       47511.29
 974.5830       46797.29
 974.6840       39396.45
 974.7850       39950.26
 974.8860       35350.48
 974.9870       7925.749
 975.0880       474.5704
 975.1890       8557.361
 975.2900       33382.42
 975.3910       42385.16
 975.4920        44339.5
 975.5930       43968.77
 975.6940       49479.34
 975.7950       51708.29
 975.8960       52120.21
 975.9970       51937.13
 976.0980       49456.46
 976.1990       43044.23
 976.3000       41611.67
 976.4010       42444.66
 976.5020       43945.88
 976.6030       45154.18
 976.7040       44270.84
 976.8050       41515.55
 976.9060       41790.17
 977.0070       46435.71
 977.1080       46815.59
 977.2090       48582.28
 977.3100        45190.8
 977.4110       44961.95
 977.5120       51172.79
 977.6130       48715.01
 977.7140       44609.54
 977.8150       40819.87
 977.9160       31368.59
 978.0170       20269.63
 978.1180       21331.46
 978.2190       33798.92
 978.3200       45346.41
 978.4210       46078.72
 978.5220       48211.55
 978.6230        48339.7
 978.7240        44298.3
 978.8250       26993.08
 978.9260       14356.28
 979.0270       14562.24
 979.1280       17747.76
 979.2290       18722.63
 979.3300       23098.14
 979.4310       26041.09
 979.5320       25111.98
 979.6330        29345.6
 979.7340       35487.79
 979.8350       9486.471
 979.9360       -266.886
 980.0370      -92.96416
 980.1380      -330.9625
 980.2390      -170.7713
 980.3400       39.76569
 980.4410       2653.171
 980.5420       1243.488
 980.6430       2012.406
 980.7440       24906.02
 980.8450       50550.34
 980.9460       48733.31
 981.0470       49891.27
 981.1480       49282.54
 981.2490       40092.14
 981.3500       36778.47
 981.4510       47140.55
 981.5520       53735.86
 981.6530       57086.14
 981.7540       57566.71
 981.8550       55941.91
 981.9560       54889.24
 982.0570       46609.63
 982.1580       36567.94
 982.2590       37561.12
 982.3600       33034.57
 982.4610       24393.41
 982.5620       3742.471
 982.6630       3348.858
 982.7640       26604.04
 982.8650       52129.37
 982.9660       55493.38
 983.0670        55589.5
 983.1680        57768.1
 983.2690       57855.06
 983.3700       51479.45
 983.4710       40174.52
 983.5720       34412.22
 983.6730       23706.87
 983.7740       32265.66
 983.8750       30270.13
 983.9760       6493.183
 984.0770       959.7209
 984.1780       14813.97
 984.2790       27244.81
 984.3800       2337.365
 984.4810       21.45813
 984.5820      -83.81038
 984.6830        1151.95
 984.7840       8264.439
 984.8850       1856.792
 984.9860       62.65015
 985.0870      -189.0789
 985.1880       -184.502
 985.2890      -56.34902
 985.3900       117.5728
 985.4910      -47.19525
 985.5920       1119.912
 985.6930        9587.16
 985.7940       8516.168
 985.8950       502.0318
 985.9960       1714.908
 986.0970       25253.86
 986.1980       54729.04
 986.2990       58028.98
 986.4000       58596.51
 986.5010       58724.67
 986.6020        49964.5
 986.7030       34769.21
 986.8040       16585.23
 986.9050       23537.53
 987.0060       44710.23
 987.1070        53429.2
 987.2080       57964.91
 987.3090       57003.76
 987.4100       56271.45
 987.5110       59237.27
 987.6120       54175.24
 987.7130       38380.38
 987.8140        30732.4
 987.9150       37780.81
 988.0160       55031.11
 988.1170       59942.12
 988.2180       61008.54
 988.3190       62683.68
 988.4200       60047.39
 988.5210       54239.31
 988.6220        51369.6
 988.7230       41121.95
 988.8240       34430.53
 988.9250       26485.05
 989.0260       31634.05
 989.1270       53653.47
 989.2280        58202.9
 989.3290       48916.39
 989.4300        43428.7
 989.5310       40380.49
 989.6320        46815.6
 989.7330        55726.8
 989.8340       58477.52
 989.9350       55603.23
 990.0360       48129.16
 990.1370       47579.93
 990.2380        54381.2
 990.3390       14182.36
 990.4400        3051.36
 990.5410       2570.787
 990.6420       5687.649
 990.7430       14855.16
 990.8440       15958.19
 990.9450       7948.634
 991.0460       918.5288
 991.1470      -65.50281
 991.2480       1234.334
 991.3490       1971.214
 991.4500       7120.216
 991.5510       28512.61
 991.6520       51246.03
 991.7530       52879.98
 991.8540       53749.59
 991.9550       34165.07
 992.0560       7966.942
 992.1570       5737.995
 992.2580       19038.44
 992.3590       38426.15
 992.4600       32407.54
 992.5610       31684.39
 992.6620       39263.73
 992.7630       42600.28
 992.8640       37918.12
 992.9650       28535.49
 993.0660       35927.17
 993.1670       54188.97
 993.2680       60523.39
 993.3690       62052.06
 993.4700       61946.79
 993.5710       60084.01
 993.6720       50705.95
 993.7730       39716.84
 993.8740       34384.76
 993.9750       40211.14
 994.0760       48092.55
 994.1770       53072.21
 994.2780       54175.24
 994.3790       53790.77
 994.4800       49767.69
 994.5810       44193.03
 994.6820       48284.77
 994.7830       56070.07
 994.8840       50367.27
 994.9850       53699.24
 995.0860        60619.5
 995.1870       62949.14
 995.2880        62244.3
 995.3890       61058.89
 995.4900       60299.12
 995.5910       55731.38
 995.6920       58152.55
 995.7930       60532.54
 995.8940       31592.86
 995.9950       7889.134
 996.0960       22411.61
 996.1970       41474.36
 996.2980        40041.8
 996.3990       25995.32
 996.5000        30732.4
 996.6010        50280.3
 996.7020       58257.82
 996.8030        56202.8
 996.9040       51653.37
 997.0050       51506.91
 997.1060       45534.06
 997.2070       38819.77
 997.3080       23844.18
 997.4090       1930.022
 997.5100      -170.7713
 997.6110      -106.6948
 997.7120      -230.2709
 997.8130      -157.0407
 997.9140      -193.6558
 998.0150       4593.772
 998.1160       318.9561
 998.2170      -202.8095
 998.3180       58.07325
 998.4190       2149.713
 998.5200       42110.55
 998.6210        60816.3
 998.7220       62505.18
 998.8230       63287.82
 998.9240       61974.26
 999.0250       59832.27
 999.1260       60688.15
 999.2270       61942.22
 999.3280       62578.41
 999.4290       62830.14
 999.5300       61722.53
 999.6310       59910.08
 999.7320       57433.98
 999.8330       59228.13
 999.9340       61443.34
1000.0350       61731.68
1000.1360       61919.34
1000.2370        61054.3
1000.3380       61182.46
1000.4390       61873.57
1000.5400       61621.84
1000.6410       61539.46
1000.7420       61164.14
1000.8430        60857.5
1000.9440       59731.58
1001.0450       60070.27
1001.1460       59054.21
1001.2470       55227.93
1001.3480        34059.8
1001.4490       22416.19
1001.5500       26567.43
1001.6510       34883.64
1001.7520       39140.15
1001.8530        35940.9
1001.9540       21624.38
1002.0550       38929.61
1002.1560       54486.47
1002.2570       55662.73
1002.3580       55987.69
1002.4590       55150.12
1002.5600       54358.31
1002.6610        50875.3
1002.7620       42124.28
1002.8630         33268.
1002.9640       17651.64
1003.0650       726.2994
1003.1660      -33.46457
1003.2670       16.88123
1003.3680       2644.017
1003.4690       10131.81
1003.5700       2003.252
1003.6710       80.95772
1003.7720       387.6094
1003.8730       3248.167
1003.9740       11449.96
1004.0750       5943.956
1004.1760       12278.37
1004.2770       20791.39
1004.3780       27707.07
1004.4790       23555.83
1004.5800       9481.892
1004.6810       16241.96
1004.7820       37437.54
1004.8830       45181.64
1004.9840       48005.59
1005.0850       49749.38
1005.1860       45913.95
1005.2870       35501.52
1005.3880       24599.36
1005.4890       28379.88
1005.5900       24095.91
1005.6910       2987.284
1005.7920       5138.423
1005.8930       20910.39
1005.9940       10754.27
1006.0950       15523.39
1006.1960       20347.43
1006.2970       6168.223
1006.3980      -79.23348
1006.4990      -102.1179
1006.6000       -70.0797
1006.7010       1440.294
1006.8020       11431.65
1006.9030       22709.11
1007.0040       25679.51
1007.1050       2081.059
1007.2060       21.45812
1007.3070      -65.50282
1007.4080      -97.54105
1007.5090      -134.1562
1007.6100      -106.6948
1007.7110      -47.19525
1007.8120      -51.77214
1007.9130      -157.0406
1008.0140      -344.6932
1008.1150      -65.50282
1008.2160       -19.7339
1008.3170       30.61191
1008.4180       8021.864
1008.5190       36050.75
1008.6200       37075.97
1008.7210       30727.82
1008.8220       29409.68
1008.9230        40238.6
1009.0240       43826.89
1009.1250       43785.69
1009.2260       42316.51
1009.3270        40000.6
1009.4280       38925.04
1009.5290       38719.08
1009.6300       40385.07
1009.7310       41263.83
1009.8320       41840.52
1009.9330       39346.11
1010.0340        29958.9
1010.1350       16397.57
1010.2360       14228.13
1010.3370       28398.19
1010.4380       40375.91
1010.5390       43543.12
1010.6400       43245.62
1010.7410       41391.98
1010.8420       41286.71
1010.9430       42572.82
1011.0440       43749.08
1011.1450       43117.47
1011.2460        43071.7
1011.3470       41611.67
1011.4480       42737.58
1011.5490       43410.39
1011.6500         43209.
1011.7510       43492.77
1011.8520       43149.51
1011.9530       42472.13
1012.0540       40604.75
1012.1550       41300.45
1012.2560       41359.94
1012.3570       41135.67
1012.4580       42138.02
1012.5590       42897.78
1012.6600       43126.62
1012.7610       42289.05
1012.8620       42888.62
1012.9630       42101.39
1013.0640       42119.71
1013.1650       41694.05
1013.2660       42636.89
1013.3670       41575.05
1013.4680       41515.55
1013.5690       41648.29
1013.6700       41030.41
1013.7710       40439.98
1013.8720       41881.71
1013.9730       40600.18
1014.0740       33602.11
1014.1750       22580.96
1014.2760       21436.73
1014.3770       30160.29
1014.4780       38526.85
1014.5790       41044.13
1014.6800        40851.9
1014.7810       41698.63
1014.8820       41218.06
1014.9830       38444.46
1015.0840       32229.04
1015.1850       32819.46
1015.2860       37355.16
1015.3870        40238.6
1015.4880       41117.36
1015.5890       41158.55
1015.6900       36796.78
1015.7910        15363.2
1015.8920       598.1464
1015.9930      -138.7331
1016.0940      -74.65659
1016.1950      -47.19525
1016.2960        154.188
1016.3970       12671.99
1016.4980       38471.92
1016.5990       40998.37
1016.7000       41057.87
1016.8010       40522.37
1016.9020       41144.83
1017.0030       40201.98
1017.1040       40623.06
1017.2050       40467.45
1017.3060       40549.83
1017.4070       40302.68
1017.5080       40316.41
1017.6090       39286.61
1017.7100       38609.23
1017.8110       35364.21
1017.9120       29867.37
1018.0130       32888.12
1018.1140       36448.94
1018.2150       36096.52
1018.3160       33341.23
1018.4170       33794.34
1018.5180        33821.8
1018.6190       33185.62
1018.7200       35638.82
1018.8210         38417.
1018.9220       39277.45
1019.0230       39963.99
1019.1240       39341.54
1019.2250       38865.54
1019.3260       38943.35
1019.4270       39007.42
1019.5280       38215.61
1019.6290       36142.29
1019.7300       35071.29
1019.8310        35208.6
1019.9320       28187.65
1020.0330       13921.48
1020.1340       15770.54
1020.2350       30782.75
1020.3360       37066.82
1020.4370       35844.79
1020.5380       30540.17
1020.6390       26141.78
1020.7400       28004.57
1020.8410       18823.33
1020.9420       5998.878
1021.0430        657.646
1021.1440       2218.366
1021.2450        7129.37
1021.3460       5280.306
1021.4470       15404.39
1021.5480       28640.76
1021.6490       14731.59
1021.7500       552.3774
1021.8510       7.727448
1021.9520       5330.652
1022.0530       5586.958
1022.1540       21921.88
1022.2550       26109.74
1022.3560       35377.95
1022.4570       37886.08
1022.5580       38064.58
1022.6590       33830.96
1022.7600       37707.58
1022.8610       32114.62
1022.9620       26242.46
1023.0630       26979.35
1023.1640       26695.58
1023.2650       24768.71
1023.3660       19789.05
1023.4670       5971.417
1023.5680       1028.374
1023.6690      -111.2717
1023.7700      -6.003226
1023.8710       58.07325
1023.9720       6744.912
1024.0730       24558.17
1024.1741       28535.49
1024.2750       15830.04
1024.3760       23162.22
1024.4771       30650.01
1024.5780       35355.05
1024.6790       37638.93
1024.7800       35931.75
1024.8810       33986.57
1024.9819       36055.32
1025.0830        37565.7
1025.1840       36938.66
1025.2850        36970.7
1025.3860       36705.24
1025.4871       32142.08
1025.5880       17811.84
1025.6890       13688.06
1025.7900       28311.22
1025.8910       31130.59
1025.9919       20695.28
1026.0930       25931.24
1026.1940       36751.01
1026.2950       37808.27
1026.3960       29725.48
1026.4971       13729.25
1026.5980        6909.68
1026.6990         10530.
1026.8000       25496.44
1026.9010       29267.79
1027.0020       25844.28
1027.1030       31560.82
1027.2040       38352.92
1027.3049       39135.57
1027.4060       39263.73
1027.5070        38952.5
1027.6080       38902.15
1027.7090       38590.93
1027.8101        38577.2
1027.9110       36316.21
1028.0120       24617.67
1028.1130       1902.561
1028.2140      -51.77214
1028.3149       -102.118
1028.4160       9170.664
1028.5170       12456.87
1028.6180       1605.063
1028.7190      -47.19524
1028.8201      -42.61835
1028.9210       3902.662
1029.0220       26887.81
1029.1230       36380.29
1029.2240       30558.47
1029.3250       24095.91
1029.4260       32224.46
1029.5270       35263.52
1029.6279       28778.07
1029.7290       12186.83
1029.8301       11060.92
1029.9310       23651.95
1030.0320       32659.27
1030.1331       32485.35
1030.2340       32586.04
1030.3350       33620.41
1030.4360       34663.95
1030.5370       33698.23
1030.6379       34165.07
1030.7390       34522.07
1030.8400       36082.79
1030.9410       37574.85
1031.0420       38082.88
1031.1431        36792.2
1031.2440       36599.97
1031.3450        37506.2
1031.4460       34215.41
1031.5470       25093.67
1031.6479       15610.35
1031.7490       13578.21
1031.8500       17949.14
1031.9509       10461.35
1032.0520       17802.68
1032.1531        20333.7
1032.2540       7550.444
1032.3550       16109.23
1032.4561       30489.82
1032.5570       19001.83
1032.6580       10905.31
1032.7590       23111.88
1032.8600       32837.77
1032.9609       35670.87
1033.0620       35931.75
1033.1630        37149.2
1033.2640       37977.62
1033.3650       38659.57
1033.4661       37716.73
1033.5670       37712.16
1033.6680        37803.7
1033.7690        38517.7
1033.8700       38330.04
1033.9709       38183.58
1034.0720       37162.93
1034.1730       34046.07
1034.2740       36156.02
1034.3750       37419.24
1034.4761       37002.74
1034.5770       36037.02
1034.6780       36860.86
1034.7791         32911.
1034.8800         21423.
1034.9810       25299.63
1035.0820       32828.62
1035.1830       19308.48
1035.2839        5422.19
1035.3850       18635.68
1035.4860       33272.57
1035.5870       36361.97
1035.6880       37666.39
1035.7891       36787.63
1035.8900       35835.63
1035.9910       35794.44
1036.0920       36815.09
1036.1930       36879.16
1036.2939       35876.82
1036.3950       30109.94
1036.4960       20681.55
1036.5970       17258.03
1036.6980       24095.91
1036.7991       28746.03
1036.9000       26768.81
1037.0010       26155.51
1037.1021       23281.22
1037.2030       16283.15
1037.3040       15344.89
1037.4050       23121.03
1037.5060       14919.24
1037.6069       181.6493
1037.7080      -106.6948
1037.8090      -138.7331
1037.9100      -102.1179
1038.0110       2085.636
1038.1121       17340.42
1038.2130       26860.35
1038.3140       30750.71
1038.4150       31986.47
1038.5160       34398.49
1038.6169       35972.94
1038.7180       37085.12
1038.8190       36279.59
1038.9200       35556.44
1039.0210       35204.02
1039.1221       34737.18
1039.2230       33776.03
1039.3240       28260.88
1039.4250       25029.59
1039.5260       27519.42
1039.6270       29510.37
1039.7280       24182.87
1039.8290       25002.13
1039.9299       31263.32
1040.0310       28979.45
1040.1320       17514.34
1040.2330       11211.96
1040.3340       11308.07
1040.4351       13459.21
1040.5360       6776.949
1040.6370       254.8796
1040.7380       7.727448
1040.8390       39.76569
1040.9399      -106.6948
1041.0410      -33.46457
1041.1420       639.3385
1041.2430       13761.29
1041.3440        32970.5
1041.4451       37034.78
1041.5460       35409.98
1041.6470       33629.57
1041.7480       32251.93
1041.8490       32544.85
1041.9500       32499.08
1042.0510        33345.8
1042.1520       34618.18
1042.2529       34567.84
1042.3540       31638.63
1042.4551        28672.8
1042.5560       29803.29
1042.6570        28375.3
1042.7581       27560.62
1042.8590       31103.13
1042.9600       35478.63
1043.0610       37176.66
1043.1620        37208.7
1043.2629       37533.66
1043.3640       37762.51
1043.4650       37876.93
1043.5660        38000.5
1043.6670       37689.27
1043.7681       37652.66
1043.8690        37089.7
1043.9700       34947.71
1044.0710       31245.01
1044.1720        29821.6
1044.2729       33437.34
1044.3740       24246.94
1044.4750       3820.278
1044.5759       1248.065
1044.6770       3998.777
1044.7781       3454.126
1044.8790       14974.16
1044.9800       23349.88
1045.0811       25455.24
1045.1820       29089.29
1045.2830       26549.12
1045.3840       14411.21
1045.4850       1335.026
1045.5859      -6.003226
1045.6870       21.45813
1045.7880       2863.708
1045.8890       15633.23
1045.9900       21725.08
1046.0911       23198.84
1046.1920       26073.12
1046.2930       24549.02
1046.3940       18960.63
1046.4950       6282.645
1046.5959      -38.04146
1046.6970       39.76569
1046.7980      -97.54106
1046.8990      -138.7331
1047.0000      -120.4255
1047.1011       1719.485
1047.2020       13344.79
1047.3030       25400.32
1047.4041       31501.32
1047.5050       33112.38
1047.6060       26896.96
1047.7070       3422.088
1047.8080       -74.6566
1047.9089      -202.8095
1048.0100      -161.6175
1048.1110      -358.4239
1048.2120      -147.8869
1048.3130      -60.92591
1048.4141       -74.6566
1048.5150        6703.72
1048.6160       22223.96
1048.7170       22503.15
1048.8180       9230.163
1048.9189       9596.314
1049.0200       13486.67
1049.1210       25336.25
1049.2220       25317.94
1049.3230       23615.33
1049.4241       29002.33
1049.5250       25766.47
1049.6260       10406.42
1049.7271       8877.743
1049.8280       25368.28
1049.9290       33611.27
1050.0300       34439.68
1050.1310       34462.56
1050.2319       33400.73
1050.3330       33409.88
1050.4340       32352.62
1050.5350       31180.93
1050.6360       30723.25
1050.7371        21107.2
1050.8380       3898.085
1050.9390       7751.827
1051.0400       27318.04
1051.1410       30297.59
1051.2419       32013.93
1051.3430       33698.23
1051.4440       34018.61
1051.5450       32444.16
1051.6460       32187.85
1051.7471       32389.23
1051.8480       24150.83
1051.9490         10411.
1052.0500       20658.66
1052.1510       32993.38
1052.2520       32645.54
1052.3530       28411.92
1052.4540       16498.27
1052.5549       11816.11
1052.6560       18956.06
1052.7570       26604.04
1052.8580       25354.55
1052.9590       19317.63
1053.0601       11898.49
1053.1610       15262.51
1053.2620       10978.54
1053.3630       17171.07
1053.4640       25844.28
1053.5649       29990.94
1053.6660       32174.12
1053.7670       32435.01
1053.8680       32521.96
1053.9690       31158.05
1054.0701       29359.33
1054.1710       28805.53
1054.2720       30572.21
1054.3730       30759.86
1054.4740       31002.43
1054.5750        31327.4
1054.6760       29807.87
1054.7770       27386.69
1054.8779       26938.16
1054.9790       27469.08
1055.0801       25912.93
1055.1810       20773.08
1055.2820       28155.61
1055.3831       31231.28
1055.4840       29038.95
1055.5850       18058.99
1055.6860       13120.52
1055.7870       25446.09
1055.8879       30837.67
1055.9890       30988.71
1056.0900       29775.83
1056.1910       22919.65
1056.2920       8223.247
1056.3931       602.7233
1056.4940        35.1888
1056.5950      -65.50282
1056.6960        90.1115
1056.7970       3394.627
1056.8979       19683.79
1056.9990       23308.68
1057.1000       21908.15
1057.2009       23006.61
1057.3020       26361.47
1057.4031       27368.38
1057.5040       25299.63
1057.6050       25674.93
1057.7061       28054.92
1057.8070       29194.56
1057.9080       28654.49
1058.0090       26045.66
1058.1100       19793.63
1058.2109       15592.04
1058.3120       21157.54
1058.4130        20214.7
1058.5140       22118.69
1058.6150       26054.82
1058.7161       28379.88
1058.8170       28279.18
1058.9180       27542.31
1059.0190       23857.91
1059.1200       10644.42
1059.2209       2090.213
1059.3220       4346.621
1059.4230       12461.45
1059.5240       19075.06
1059.6250       25743.59
1059.7261       19505.28
1059.8270       7555.021
1059.9280       14997.05
1060.0291       27876.42
1060.1300        27226.5
1060.2310       25848.86
1060.3320       28993.18
1060.4330        30018.4
1060.5339       27803.19
1060.6350       20539.66
1060.7360       11271.46
1060.8370       7440.599
1060.9380       7083.602
1061.0391       58.07326
1061.1400      -147.8869
1061.2410      -157.0406
1061.3420      -125.0024
1061.4430      -239.4247
1061.5439       433.3783
1061.6450       11070.08
1061.7460        16928.5
1061.8470       11486.57
1061.9480       14022.17
1062.0491       7509.251
1062.1500      -83.81038
1062.2510      -1.426331
1062.3521       -184.502
1062.4530      -88.38727
1062.5540      -134.1562
1062.6550       -70.0797
1062.7560      -6.003224
1062.8569       1101.604
1062.9580       14278.47
1063.0590       24498.67
1063.1600       28027.46
1063.2610       29322.72
1063.3621       29890.25
1063.4630       29455.45
1063.5640       29341.03
1063.6650       29757.52
1063.7660       30132.83
1063.8669       29830.75
1063.9680       27743.69
1064.0690       22910.49
1064.1700       22873.88
1064.2710       27487.38
1064.3721        28750.6
1064.4730       28768.91
1064.5740       25848.86
1064.6750       11674.22
1064.7760       1513.525
1064.8770       135.8804
1064.9780        90.1115
1065.0790       1037.528
1065.1799        9838.89
1065.2810       19633.44
1065.3820        24553.6
1065.4830       27697.92
1065.5840       29716.33
1065.6851       29441.71
1065.7860       29551.56
1065.8870       29373.06
1065.9880       28279.18
1066.0890       25253.86
1066.1899       21624.39
1066.2910       23294.95
1066.3920       26215.01
1066.4930       26549.12
1066.5940       24832.79
1066.6951       24599.37
1066.7960       26745.93
1066.8970       27267.69
1066.9980       26009.05
1067.0990       26306.55
1067.2000       27858.11
1067.3010       28324.96
1067.4020       27990.84
1067.5029        24196.6
1067.6040       13532.44
1067.7051       15994.81
1067.8060       20434.39
1067.9070       21784.58
1068.0081       24265.25
1068.1090       26759.66
1068.2100       27588.07
1068.3110       27560.61
1068.4120       28233.42
1068.5129       26050.24
1068.6140       18901.13
1068.7150       20352.01
1068.8160       25894.63
1068.9170       26993.08
1069.0181       21459.62
1069.1190        8484.13
1069.2200       1431.141
1069.3210        2772.17
1069.4220       8410.899
1069.5229       15193.85
1069.6240       15491.35
1069.7250       19871.44
1069.8259       25574.24
1069.9270       25880.89
1070.0281       24814.48
1070.1290       22059.19
1070.2300       23917.41
1070.3311       25592.55
1070.4320       25162.32
1070.5330       27025.12
1070.6340       27066.31
1070.7350       25446.09
1070.8359       26050.24
1070.9370       25144.01
1071.0380       24562.75
1071.1390       26329.43
1071.2400       26599.46
1071.3411       25125.71
1071.4420       24553.59
1071.5430       24150.83
1071.6440       22965.42
1071.7450        21363.5
1071.8459       23716.03
1071.9470       23816.71
1072.0480        19541.9
1072.1490        17898.8
1072.2500       22022.57
1072.3511         21423.
1072.4520       22965.41
1072.5530       26356.89
1072.6541       27592.65
1072.7550       27194.46
1072.8560       27395.84
1072.9570       26283.66
1073.0580       22526.04
1073.1589       16223.65
1073.2600       18718.06
1073.3610       23624.49
1073.4620       27089.19
1073.5630       27176.16
1073.6641       26558.27
1073.7650       26594.89
1073.8660       26983.93
1073.9670         26810.
1074.0680       27290.58
1074.1689       27528.57
1074.2700       27437.04
1074.3710       26974.77
1074.4720       25331.67
1074.5730       24420.87
1074.6741       24498.67
1074.7750       25963.28
1074.8760       27144.12
1074.9771       27263.12
1075.0780       24448.33
1075.1790        13738.4
1075.2800       16740.84
1075.3810       24837.36
1075.4819       26347.74
1075.5830       24997.55
1075.6840       23139.34
1075.7850       21866.96
1075.8860       21294.85
1075.9871       24022.68
1076.0880       24475.79
1076.1890       19551.05
1076.2900       20544.24
1076.3910       24233.21
1076.4919       25510.16
1076.5930       22448.23
1076.6940       21683.88
1076.7950       24379.67
1076.8960       25308.79
1076.9971       26526.23
1077.0980       26512.51
1077.1990       25812.24
1077.3000       24933.48
1077.4010       24608.52
1077.5020       24201.18
1077.6030       23583.29
1077.7040       22773.19
1077.8049       21985.96
1077.9060       21020.24
1078.0070       16823.23
1078.1080       15326.58
1078.2090        18869.1
1078.3101        23047.8
1078.4110       25331.67
1078.5120       26260.78
1078.6130       26274.51
1078.7140       17944.57
1078.8149       831.5679
1078.9160      -56.34903
1079.0170       30.61191
1079.1180       94.68839
1079.2190       6369.606
1079.3201       18219.18
1079.4210       18850.79
1079.5220       12328.72
1079.6230       18342.75
1079.7240       24210.33
1079.8250       24599.36
1079.9260        14511.9
1080.0270       300.6485
1080.1279      -92.96416
1080.2290      -24.31078
1080.3301       6708.296
1080.4310       19262.71
1080.5320       17917.11
1080.6331       18434.29
1080.7340       21349.77
1080.8350       23029.49
1080.9360       25002.13
1081.0370       24022.68
1081.1379       18791.29
1081.2390       20942.43
1081.3400        25523.9
1081.4410       25757.32
1081.5420       25569.67
1081.6431       25977.01
1081.7440       24439.17
1081.8450       19940.09
1081.9460       17477.72
1082.0470       20722.74
1082.1479       22237.69
1082.2490       12603.33
1082.3500       1989.521
1082.4509       1824.754
1082.5520       12534.68
1082.6531       22937.96
1082.7540       25400.32
1082.8550       25258.44
1082.9561       24800.75
1083.0570       25240.13
1083.1580       25890.05
1083.2590       25386.59
1083.3600       21496.23
1083.4609       17395.34
1083.5620       20004.17
1083.6630       23880.79
1083.7640       24754.98
1083.8650       23963.18
1083.9661        23464.3
1084.0670        24095.9
1084.1680       24942.63
1084.2690       24754.98
1084.3700       21949.34
1084.4709       22411.61
1084.5720       23995.21
1084.6730       23061.53
1084.7740       20832.58
1084.8750       19747.86
1084.9761       21033.96
1085.0770       23670.25
1085.1780       20960.74
1085.2791       18329.03
1085.3800       22320.07
1085.4810       23532.95
1085.5820       23967.75
1085.6830       22905.92
1085.7839       12443.14
1085.8850       978.0285
1085.9860       1705.754
1086.0870       17084.11
1086.1880       25194.36
1086.2891       25546.78
1086.3900       25441.51
1086.4910        25404.9
1086.5920       25514.74
1086.6930       25327.09
1086.7939       25061.63
1086.8950       23844.18
1086.9960       24283.56
1087.0970       25505.59
1087.1980       25711.55
1087.2991       23725.18
1087.4000       17734.03
1087.5010       13061.02
1087.6021       13994.71
1087.7030       15074.85
1087.8040       11852.72
1087.9050       11047.19
1088.0060       16864.42
1088.1069       21001.93
1088.2080       21606.08
1088.3090       22356.69
1088.4100       22420.76
1088.5110       20493.89
1088.6121       20127.74
1088.7130       12539.26
1088.8140       7912.019
1088.9150       8946.396
1089.0160       13129.67
1089.1169       21999.69
1089.2180       24585.63
1089.3190       24484.94
1089.4200       23258.34
1089.5210       23546.68
1089.6221       23615.33
1089.7230       22091.23
1089.8240       21619.81
1089.9250       24123.37
1090.0260       25272.17
1090.1270       24823.63
1090.2280       24201.18
1090.3290        22214.8
1090.4299       17944.57
1090.5310       17761.49
1090.6321       22123.27
1090.7330       24059.29
1090.8340         21780.
1090.9351       17550.95
1091.0360       18026.95
1091.1370       18814.17
1091.2380        8424.63
1091.3390       117.5729
1091.4399      -106.6948
1091.5410      -19.73388
1091.6420       1833.907
1091.7430        15006.2
1091.8440       22219.38
1091.9451       23642.79
1092.0460        22077.5
1092.1470        18887.4
1092.2480       18283.26
1092.3490        18869.1
1092.4500       20525.93
1092.5510       23088.99
1092.6520       24425.44
1092.7529       24278.98
1092.8540       24489.52
1092.9551       24576.48
1093.0560       20159.78
1093.1570       15642.39
1093.2581       15294.54
1093.3590       12603.33
1093.4600         3934.7
1093.5610        80.9577
1093.6620      -28.88768
1093.7629      -111.2717
1093.8640       3536.511
1093.9650       15514.24
1094.0660       22219.38
1094.1670       23125.61
1094.2681       23665.68
1094.3690       18919.44
1094.4700       11523.19
1094.5710       13623.98
1094.6720       18942.33
1094.7729       21212.47
1094.8740       23299.53
1094.9750       24700.06
1095.0760       24292.71
1095.1770       24658.86
1095.2781       24938.05
1095.3790       25043.32
1095.4800       23166.79
1095.5811       22384.15
1095.6820       15770.54
1095.7830        2154.29
1095.8840       126.7266
1095.9850       58.07325
1096.0859       199.9569
1096.1870       2406.019
1096.2880       16360.96
1096.3890       22956.26
1096.4900       23537.53
1096.5911       17830.14
1096.6920       4923.309
1096.7930       1820.176
1096.8940       9916.697
1096.9950       21427.58
1097.0959       23121.03
1097.1970       22521.46
1097.2980       23610.76
1097.3990       22713.69
1097.5000       21857.81
1097.6011       21111.78
1097.7020       21427.58
1097.8030       22530.61
1097.9041       17830.14
1098.0050       11925.95
1098.1060        18631.1
1098.2070       22008.85
1098.3080       24539.87
1098.4089       25688.67
1098.5100       24365.94
1098.6110       23999.79
1098.7120       24498.67
1098.8130        24256.1
1098.9141       19029.29
1099.0150       8996.743
1099.1160       4049.122
1099.2170       5824.956
1099.3180       16960.54
1099.4189       20461.86
1099.5200       6836.449
1099.6210       30.61191
1099.7220      -60.92593
1099.8230       2039.867
1099.9241       12960.33
1100.0250       8886.896
1100.1260       9179.818
1100.2271       20823.43
1100.3280       20484.74
1100.4290       7486.368
1100.5300       1206.873
1100.6310       6722.027
1100.7319       16896.46
1100.8330       16699.65
1100.9340       10639.85
1101.0350       1943.753
1101.1360       21.45812
1101.2371       -19.7339
1101.3380      -47.19524
1101.4390       886.4906
1101.5400       4799.733
1101.6410        13916.9
1101.7419       17834.72
1101.8430       14932.97
1101.9440       1582.178
1102.0450        -15.157
1102.1460       44.34258
1102.2471        6305.53
1102.3480       21844.07
1102.4490       25189.78
1102.5500       25459.82
1102.6510       25592.55
1102.7520       25519.32
1102.8530       25592.55
1102.9540       25061.63
1103.0549       21194.16
1103.1560       21578.62
1103.2571       22924.22
1103.3580       23610.76
1103.4590       24201.18
1103.5601       24823.63
1103.6610       24677.17
1103.7620        23345.3
1103.8630       13010.68
1103.9640        236.572
1104.0649       58.07326
1104.1660       80.95772
1104.2670       26.03502
1104.3680       8639.744
1104.4690       15614.93
1104.5701       12736.06
1104.6710       4602.926
1104.7720       4840.925
1104.8730       13061.02
1104.9740       19569.36
1105.0750       21313.16
1105.1760       20594.58
1105.2770       21628.96
1105.3779       23802.99
1105.4790       23372.76
1105.5801       21697.62
1105.6810       22393.31
1105.7820       22896.76
1105.8831       21638.11
1105.9840       20127.74
1106.0850       20887.51
1106.1860       21079.74
1106.2870       17258.03
1106.3879       15729.35
1106.4890       20681.54
1106.5900         22137.
1106.6910       20374.89
1106.7920       17212.26
1106.8931         16869.
1106.9940       19477.82
1107.0950       22667.92
1107.1960       21862.38
1107.2970       8896.051
1107.3979       877.3368
1107.4990       3920.969
1107.6000       18136.79
1107.7010       22109.54
1107.8020       19432.06
1107.9031       17441.11
1108.0040       16447.92
1108.1050       8365.131
1108.2061       1884.253
1108.3070       2804.208
1108.4080        2168.02
1108.5090      -1.426334
1108.6100      -42.61835
1108.7109       -102.118
1108.8120      -56.34904
1108.9130       6891.372
1109.0140       15935.31
1109.1150       24480.37
1109.2161       25372.86
1109.3170       25235.55
1109.4180       25555.93
1109.5190       25642.89
1109.6200       25752.74
1109.7209       25940.39
1109.8220       25176.05
1109.9230       23386.49
1110.0240       11120.42
1110.1250       11060.92
1110.2261       21271.96
1110.3270        23720.6
1110.4280       23098.14
1110.5291       21656.42
1110.6300       21862.38
1110.7310       22063.77
1110.8320       16415.88
1110.9330       8873.166
1111.0339        10589.5
1111.1350       15326.58
1111.2360       6859.333
1111.3370       5943.956
1111.4380       20361.16
1111.5391       23024.91
1111.6400       22878.46
1111.7410       23015.76
1111.8420       23331.57
1111.9430       23954.03
1112.0439       23542.11
1112.1450       22860.15
1112.2460       23917.41
1112.3470       24974.67
1112.4480       25281.32
1112.5491       25089.09
1112.6500        24732.1
1112.7510       20663.24
1112.8521       17875.91
1112.9530       18965.21
1113.0540       20896.66
1113.1550       22539.77
1113.2560       23912.83
1113.3569       23116.45
1113.4580       22704.53
1113.5590       23972.33
1113.6600       24516.98
1113.7610       23807.56
1113.8621       21395.54
1113.9630       19331.37
1114.0640       21871.54
1114.1650        21601.5
1114.2660       22013.42
1114.3669       23478.03
1114.4680       12859.64
1114.5690       20562.55
1114.6700       23272.06
1114.7710       23464.29
1114.8721       23963.18
1114.9730       24475.79
1115.0740       24388.83
1115.1750       23935.71
1115.2760       23688.56
1115.3770       23903.68
1115.4780       23514.64
1115.5790       21313.16
1115.6799       19432.05
1115.7810       21381.81
1115.8821       21276.54
1115.9830       10040.27
1116.0840       1664.562
1116.1851       1518.102
1116.2860       8305.632
1116.3870       16951.38
1116.4880       19770.75
1116.5890        22672.5
1116.6899       23386.49
1116.7910       23500.91
1116.8920       23702.29
1116.9930       23770.95
1117.0940       23835.02
1117.1951       24178.29
1117.2960       23711.45
1117.3970       22727.42
1117.4980       20663.24
1117.5990       13848.25
1117.7000       9404.086
1117.8010        13321.9
1117.9020       20567.12
1118.0029       23432.26
1118.1040       23688.56
1118.2051       23491.76
1118.3060       23432.26
1118.4070       23015.76
1118.5081       21894.42
1118.6090       13623.98
1118.7100       5998.878
1118.8110       13212.06
1118.9120       22681.65
1119.0129       22590.11
1119.1140       20342.86
1119.2150       19189.48
1119.3160       16370.11
1119.4170       3559.395
1119.5181       383.0325
1119.6190       7985.249
1119.7200       18823.33
1119.8210       19162.02
1119.9220       19930.93
1120.0229       21070.58
1120.1240        20928.7
1120.2250       20699.85
1120.3260       19811.93
1120.4270       17912.53
1120.5281       14878.05
1120.6290       13674.33
1120.7300       7674.021
1120.8311        2506.71
1120.9320         2904.9
1121.0330       6680.835
1121.1340        5097.23
1121.2350       11166.19
1121.3359       18576.17
1121.4370       20530.51
1121.5380       19866.86
1121.6390        8072.21
1121.7400        30.6119
1121.8411      -33.46458
1121.9420       328.1099
1122.0430       3605.165
1122.1440       2497.556
1122.2450       7111.063
1122.3459       14937.55
1122.4470       20539.66
1122.5480         21899.
1122.6490       21551.15
1122.7500       18475.48
1122.8511       13532.44
1122.9520       7710.636
1123.0530       2131.405
1123.1541       2003.252
1123.2550        7513.83
1123.3560        18393.1
1123.4570       21812.04
1123.5580       21596.92
1123.6589       22924.22
1123.7600       22823.53
1123.8610       21830.35
1123.9620       21033.97
1124.0630       19724.97
1124.1641       14882.63
1124.2650       16470.81
1124.3660       21354.35
1124.4670       23061.53
1124.5680       22860.14
1124.6689       20718.16
1124.7700       15459.31
1124.8710       8708.398
1124.9720       7362.792
1125.0730       2465.518
1125.1741       1467.756
1125.2750       1824.753
1125.3760       7532.138
1125.4771       10063.16
1125.5780       3152.052
1125.6790       611.8771
1125.7800       -19.7339
1125.8810      -24.31079
1125.9819       53.49636
1126.0830       8319.362
1126.1840       20635.78
1126.2850       19372.55
1126.3860       17903.37
1126.4871       20228.43
1126.5880       22036.31
1126.6890       22983.72
1126.7900       22800.65
1126.8910       22718.26
1126.9919       22205.65
1127.0930       21949.35
1127.1940         22137.
1127.2950       21757.12
1127.3960       19999.59
1127.4971       19605.98
1127.5980       20356.59
1127.6990       22191.92
1127.8000       22841.84
1127.9010       22402.46
1128.0020         22018.
1128.1030       21921.88
1128.2040       20622.05
1128.3049       16621.84
1128.4060       9481.893
1128.5071       2644.017
1128.6080        3509.05
1128.7090       2273.289
1128.8101       53.49636
1128.9110       2026.137
1129.0120       2685.208
1129.1130       209.1107
1129.2140       3444.973
1129.3149       6328.415
1129.4160       9774.814
1129.5170       7216.331
1129.6180       158.7649
1129.7190      -97.54106
1129.8201      -92.96416
1129.9210       222.8414
1130.0220       4099.468
1130.1230        14768.2
1130.2240        16333.5
1130.3250       9783.967
1130.4260       8035.595
1130.5270       12896.25
1130.6279       15866.66
1130.7290       18324.45
1130.8301       17853.03
1130.9310       20132.32
1131.0320       19825.67
1131.1331       21043.12
1131.2340       21610.65
1131.3350       20242.16
1131.4360       17258.03
1131.5370       12832.18
1131.6379       9060.818
1131.7390       12566.72
1131.8400       18269.53
1131.9410       17102.42
1132.0420       15894.12
1132.1431       18196.29
1132.2440       20983.62
1132.3450       21697.61
1132.4460       21519.12
1132.5470       21903.57
1132.6479       22384.15
1132.7490         22375.
1132.8500       22388.72
1132.9510       22731.99
1133.0520       22054.61
1133.1531       21175.85
1133.2540         21185.
1133.3550       21116.35
1133.4561       21738.81
1133.5570       22535.19
1133.6580       22063.77
1133.7590       16905.61
1133.8600       13454.63
1133.9609        18887.4
1134.0620       20960.74
1134.1630       19372.55
1134.2640       17033.76
1134.3650       16370.11
1134.4661       18383.95
1134.5670       19990.44
1134.6680       17015.46
1134.7690       11326.38
1134.8700       14969.59
1134.9709        16768.3
1135.0720       14237.28
1135.1731       11980.88
1135.2739       13436.33
1135.3750       10937.34
1135.4761       3705.855
1135.5770        323.533
1135.6780       -19.7339
1135.7791       305.2254
1135.8800       863.6061
1135.9810       419.6476
1136.0820       2442.634
1136.1830       12241.76
1136.2839       19706.67
1136.3850       22008.84
1136.4861       22448.22
1136.5870       22379.57
1136.6880       22448.22
1136.7891        22333.8
1136.8900       22210.23
1136.9910       22031.73
1137.0920       21688.46
1137.1930       21445.89
1137.2939       21894.42
1137.3950       22475.69
1137.4961       22448.23
1137.5969       21908.15
1137.6980       21020.24
1137.7991       20384.05
1137.9000       16411.31
1138.0010       9266.779
1138.1021       9701.583
1138.2030       16763.73
1138.3040       20471.01
1138.4050       20791.39
1138.5060        19184.9
1138.6069       16640.15
1138.7080       13111.37
1138.8091       4584.619
1138.9100       2282.442
1139.0110        12292.1
1139.1121       20832.58
1139.2130       21610.65
1139.3140       21944.77
1139.4150       21619.81
1139.5160       20654.08
1139.6169       10090.62
1139.7180       6456.567
1139.8191       15390.66
1139.9199       11372.15
1140.0210       822.4141
1140.1221      -47.19524
1140.2230      -92.96416
1140.3240      -65.50282
1140.4250      -38.04146
1140.5260       3.150558
1140.6270      -106.6948
1140.7280       -19.7339
1140.8290       -102.118
1140.9299      -88.38728
1141.0310      -15.15701
1141.1321      -6.003222
1141.2330      -10.58012
1141.3340      -79.23349
1141.4351      -42.61835
1141.5360       4593.772
1141.6370       15084.01
1141.7380       17116.15
1141.8390       18246.64
1141.9399       19583.09
1142.0410       19345.09
1142.1421       19093.37
1142.2429       18507.52
1142.3440       18008.64
1142.4451       20191.82
1142.5460       21249.08
1142.6470       20709.01
1142.7480       19404.59
1142.8490       18722.64
1142.9500       20228.43
1143.0510       21450.46
1143.1520       21990.54
1143.2529       22045.46
1143.3540       22201.07
1143.4551       22603.84
1143.5560       22924.22
1143.6570       22910.49
1143.7581       22548.92
1143.8590       21679.31
1143.9600       19180.32
1144.0610       17949.14
1144.1620       17555.53
1144.2629       12758.95
1144.3640        13244.1
1144.4651       7875.404
1144.5659        3110.86
1144.6670         6172.8
1144.7681       18269.52
1144.8690        21226.2
1144.9700         21899.
1145.0710       20553.39
1145.1720       16196.19
1145.2729       14575.97
1145.3740       15949.04
1145.4750       17468.57
1145.5759       20503.05
1145.6770       21715.92
1145.7781       21926.46
1145.8790       20855.47
1145.9800       19995.01
1146.0811       11106.69
1146.1820       813.2603
1146.2830       62.65014
1146.3840       671.3767
1146.4850       808.6835
1146.5859       1312.141
1146.6870       10891.58
1146.7881       17939.99
1146.8889        15976.5
1146.9900       16383.84
1147.0911       19679.21
1147.1920       21349.77
1147.2930       21317.73
1147.3940       20493.89
1147.4950       18306.14
1147.5959       15596.62
1147.6970       18736.37
1147.7981        21482.5
1147.8989       22173.61
1148.0000       22347.54
1148.1011       21308.58
1148.2020       19583.09
1148.3030       17866.76
1148.4041       17935.41
1148.5050       20846.31
1148.6060       19985.86
1148.7070       16191.61
1148.8080       11848.15
1148.9089       15990.23
1149.0100       16328.92
1149.1111       17788.95
1149.2120       19216.94
1149.3130       20141.47
1149.4141        21166.7
1149.5150       21560.31
1149.6160       19120.82
1149.7170       11221.11
1149.8180        1344.18
1149.9189      -38.04146
1150.0200      -47.19525
1150.1211      -51.77214
1150.2219       291.4947
1150.3230       1801.869
1150.4241       4584.619
1150.5250       11477.42
1150.6260       11138.73
1150.7271       15212.16
1150.8280       18223.76
1150.9290       21006.51
1151.0300       19464.09
1151.1310       13056.45
1151.2319       17994.91
1151.3330       19491.55
1151.4341        20155.2
1151.5350       22210.23
1151.6360       22521.46
1151.7371        22155.3
1151.8380       21175.85
1151.9390       13660.59
1152.0400       4282.544
1152.1410       10859.54
1152.2419       17637.91
1152.3430       18351.91
1152.4441       13028.98
1152.5449       9976.197
1152.6460       4264.236
1152.7471       1367.064
1152.8480       12635.37
1152.9490       20315.39
1153.0500       19624.29
1153.1510       19285.59
1153.2520       19354.25
1153.3530       19889.74
1153.4540       20754.78
1153.5549       20992.78
1153.6560       21514.54
1153.7571       21802.88
1153.8580        20869.2
1153.9590       19889.74
1154.0601       17953.72
1154.1610       18699.75
1154.2620       18832.48
1154.3630       20150.63
1154.4640       21505.39
1154.5649       21674.73
1154.6660       19715.82
1154.7671       15344.89
1154.8679       7056.141
1154.9690       218.2645
1155.0701      -24.31079
1155.1710       2163.443
1155.2720       13115.94
1155.3730       14841.43
1155.4740       15985.65
1155.5750       15308.28
1155.6760       10841.23
1155.7770       8310.208
1155.8779       7962.364
1155.9790       9623.775
1156.0801       11637.61
1156.1810       7674.021
1156.2820       8209.517
1156.3831       15907.85
1156.4840        20136.9
1156.5850       21001.93
1156.6860         21899.
1156.7870       21743.38
1156.8879       21555.73
1156.9890       21322.31
1157.0901       21610.66
1157.1909       20910.39
1157.2920       17427.38
1157.3931       9765.658
1157.4940       1037.528
1157.5950       337.2636
1157.6960       4795.156
1157.7970       16347.23
1157.8979       21436.73
1157.9990       21821.19
1158.1001       19432.05
1158.2009        16017.7
1158.3020       10882.42
1158.4031       8346.823
1158.5040       14269.32
1158.6050       18182.56
1158.7061       18246.64
1158.8070       20951.58
1158.9080        22631.3
1159.0090       23377.33
1159.1100       23583.29
1159.2109       23821.29
1159.3120       23569.57
1159.4131       23597.02
1159.5139       23253.76
1159.6150       23400.22
1159.7161       23624.49
1159.8170       22686.22
1159.9180       21624.39
1160.0190       19715.82
1160.1200       20731.89
1160.2209       21130.08
1160.3220       20123.17
1160.4231       10937.34
1160.5239       1193.142
1160.6250       222.8414
1160.7261       1582.178
1160.8270       1060.412
1160.9280       12.30434
1161.0291      -33.46458
1161.1300      -42.61835
1161.2310      -83.81038
1161.3320      -79.23349
1161.4330      -10.58012
1161.5339      -51.77214
1161.6350      -79.23348
1161.7361      -60.92592
1161.8370       740.0301
1161.9380       8511.592
1162.0391       11253.15
1162.1400       9605.469
1162.2410       3646.356
1162.3420       1618.793
1162.4430        6451.99
1162.5439       9811.429
1162.6450        12214.3
1162.7461       18017.79
1162.8469       20004.17
1162.9480       21441.31
1163.0491       20686.12
1163.1500       19390.86
1163.2510       20004.17
1163.3521       22526.04
1163.4530       23693.14
1163.5540       23963.18
1163.6550       24091.33
1163.7560       22947.11
1163.8569       15651.54
1163.9580       11541.49
1164.0591       15001.62
1164.1600        20690.7
1164.2610       22480.26
1164.3621       21001.93
1164.4630       18045.25
1164.5640       14855.16
1164.6650       17724.87
1164.7660       20370.32
1164.8669       18448.02
1164.9680       18072.72
1165.0691       19152.86
1165.1699       20814.28
1165.2710       23043.22
1165.3721       16003.96
1165.4730       8781.628
1165.5740       19683.79
1165.6750       22791.49
1165.7760       21088.89
1165.8770       20686.12
1165.9780       18525.83
1166.0790       14818.55
1166.1799       4232.198
1166.2810       1339.603
1166.3821       9335.432
1166.4830       9806.853
1166.5840       6474.875
1166.6851       8552.784
1166.7860        7912.02
1166.8870       13871.13
1166.9880       15889.54
1167.0890       18864.52
1167.1899       19152.86
1167.2910       16328.92
1167.3921       11001.42
1167.4929       9179.817
1167.5940       7101.909
1167.6951        4804.31
1167.7960       13477.52
1167.8970       18150.53
1167.9980       8502.438
1168.0990        112.996
1168.2000      -74.65659
1168.3010       48.91947
1168.4020      -38.04147
1168.5029       355.5712
1168.6040        1888.83
1168.7051       112.9959
1168.8060       21.45812
1168.9070       5724.265
1169.0081       21120.93
1169.1090       24516.98
1169.2100        22196.5
1169.3110       7664.867
1169.4120       6433.683
1169.5129       19024.71
1169.6140       9037.933
1169.7151       529.4931
1169.8159        7.72745
1169.9170      -6.003229
1170.0181       7532.138
1170.1190       16882.72
1170.2200       17116.15
1170.3210       16823.23
1170.4220       14026.75
1170.5229       12585.03
1170.6240       9843.467
1170.7251        360.148
1170.8259       -19.7339
1170.9270      -10.58011
1171.0281      -83.81037
1171.1290        7.72745
1171.2300       1412.833
1171.3311       13596.52
1171.4320       21967.65
1171.5330       13312.75
1171.6340       804.1066
1171.7350      -79.23347
1171.8359      -134.1562
1171.9370       158.7649
1172.0381       1403.679
1172.1389      -38.04146
1172.2400       21.45813
1172.3411       8639.744
1172.4420        14827.7
1172.5430       7912.019
1172.6440       6204.838
1172.7450       4648.695
1172.8459       7371.946
1172.9470       15765.97
1173.0481        22095.8
1173.1489       23569.57
1173.2500       24983.82
1173.3511       25235.55
1173.4520       24873.98
1173.5530       22731.99
1173.6541       20297.09
1173.7550       18745.52
1173.8560       15793.42
1173.9570       17756.91
1174.0580       23212.57
1174.1589       24100.48
1174.2600       23597.03
1174.3611       22942.53
1174.4620       22846.42
1174.5630       24814.48
1174.6641       23880.79
1174.7650       16200.77
1174.8660       13106.79
1174.9670       8964.703
1175.0680       1522.678
1175.1689       48.91947
1175.2700       53.49636
1175.3711       1705.754
1175.4719       3829.432
1175.5730       227.4183
1175.6741       21.45812
1175.7750       259.4565
1175.8760       4245.929
1175.9771       9788.545
1176.0780       12525.53
1176.1790       15729.35
1176.2800        22690.8
1176.3810       20114.01
1176.4819       13683.48
1176.5830       14072.51
1176.6841        6923.41
1176.7850       625.6078
1176.8860      -6.003224
1176.9871       44.34258
1177.0880       547.8007
1177.1890       48.91948
1177.2900      -56.34902
1177.3910      -47.19525
1177.4919      -6.003224
1177.5930       4515.966
1177.6941       8978.436
1177.7949       13033.56
1177.8960       12960.33
1177.9971       11221.11
1178.0980       4570.888
1178.1990       8031.018
1178.3000       16090.92
1178.4010       19432.05
1178.5020       11939.68
1178.6030       16013.12
1178.7040       19967.55
1178.8049       19239.83
1178.9060       11042.61
1179.0071       12809.29
1179.1080       24301.87
1179.2090       26141.78
1179.3101       26173.82
1179.4110       26068.55
1179.5120       24484.94
1179.6130       22860.15
1179.7140        18512.1
1179.8149        13541.6
1179.9160        16708.8
1180.0171       24800.75
1180.1179       27034.27
1180.2190       27290.58
1180.3201       26123.47
1180.4210       21738.81
1180.5220       18626.52
1180.6230       18448.02
1180.7240        8191.21
1180.8250       7596.213
1180.9260       23262.91
1181.0270       27075.46
1181.1279       26604.04
1181.2290        24393.4
1181.3301       24388.83
1181.4310         10292.
1181.5320       135.8804
1181.6331        35.1888
1181.7340      -28.88768
1181.8350       2868.285
1181.9360        8145.44
1182.0370       10314.89
1182.1379       18786.71
1182.2390       24288.14
1182.3401       24320.18
1182.4409       25752.74
1182.5420       24365.94
1182.6431       22237.69
1182.7440       16100.08
1182.8450       15207.58
1182.9460       22983.72
1183.0470       15912.42
1183.1479       3820.278
1183.2490       10896.15
1183.3501       23587.87
1183.4509       26022.78
1183.5520       23537.53
1183.6531       21450.46
1183.7540        20928.7
1183.8550       20306.24
1183.9561       17052.07
1184.0570       19615.13
1184.1580        24672.6
1184.2590       27844.38
1184.3600       28430.22
1184.4609       28311.22
1184.5620       30576.79
1184.6631       31565.39
1184.7639       31309.09
1184.8650        31446.4
1184.9661       31446.39
1185.0670       31158.05
1185.1680       29624.79
1185.2690       24947.21
1185.3700       22223.96
1185.4709       23189.68
1185.5720       25519.32
1185.6731       27537.73
1185.7739       29899.41
1185.8750       30338.79
1185.9761       24027.25
1186.0770       25002.13
1186.1780       29835.33
1186.2791       31844.58
1186.3800       32622.66
1186.4810       33441.92
1186.5820        32988.8
1186.6830       30128.25
1186.7839       16539.46
1186.8850       6008.032
1186.9861       19281.02
1187.0870       27766.57
1187.1880       27931.34
1187.2891       22805.22
1187.3900       15605.77
1187.4910       14351.71
1187.5920       12777.25
1187.6930       7193.447
1187.7939       286.9178
1187.8950       -74.6566
1187.9961       -70.0797
1188.0969      -97.54106
1188.1980      -79.23349
1188.2991      -102.1179
1188.4000       -102.118
1188.5010      -47.19524
1188.6021      -97.54106
1188.7030      -115.8486
1188.8040        -143.31
1188.9050      -65.50282
1189.0060      -115.8486
1189.1069      -211.9633
1189.2080      -79.23348
1189.3091      -83.81038
1189.4100       30.61191
1189.5110       5550.343
1189.6121       17308.38
1189.7130       4735.656
1189.8140       2616.556
1189.9150       7362.792
1190.0160       2254.981
1190.1169       1481.487
1190.2180       7042.409
1190.3191       9591.738
1190.4199        18452.6
1190.5210       20914.97
1190.6221       23912.83
1190.7230       8095.095
1190.8240       21.45812
1190.9250      -65.50282
1191.0260       16.88123
1191.1270        7852.52
1191.2280       5458.805
1191.3290       790.3759
1191.4299       3966.739
1191.5310       12008.34
1191.6321       14525.63
1191.7330       21647.27
1191.8340       32027.66
1191.9351       35826.48
1192.0360       34329.84
1192.1370       30942.93
1192.2380       27459.92
1192.3390       27926.77
1192.4399       32370.93
1192.5410       34247.45
1192.6421       37117.16
1192.7429       39909.07
1192.8440       37872.35
1192.9451       25789.36
1193.0460       21972.23
1193.1470       26741.35
1193.2480       34027.76
1193.3490       39675.64
1193.4500        41369.1
1193.5510       41094.48
1193.6520       39016.57
1193.7529       34544.95
1193.8540       30022.98
1193.9551       26105.16
1194.0560       10955.65
1194.1570       621.0309
1194.2581       630.1847
1194.3590       3957.585
1194.4600       21665.58
1194.5610       38860.96
1194.6620       40247.75
1194.7629         38060.
1194.8640       37666.39
1194.9651       41218.05
1195.0659       42938.97
1195.1670       42019.01
1195.2681       41318.75
1195.3690       36082.79
1195.4700       11701.69
1195.5710       772.0683
1195.6720       1261.796
1195.7729       941.4133
1195.8740       9134.049
1195.9751       34966.02
1196.0759       42138.01
1196.1770       43067.12
1196.2781       43277.66
1196.3790       41977.82
1196.4800       35016.37
1196.5811       28942.84
1196.6820       29894.83
1196.7830       23889.95
1196.8840       7907.442
1196.9850       4044.546
1197.0859       1664.562
1197.1870        7.72745
1197.2881       48.91947
1197.3890       71.80393
1197.4900       5037.731
1197.5911       12356.18
1197.6920       33057.46
1197.7930       30128.25
1197.8940       13495.83
1197.9950       21619.81
1198.0959       39950.26
1198.1970        38732.8
1198.2981        15619.5
1198.3989       360.1481
1198.5000      -6.003225
1198.6011       21.45813
1198.7020       1897.984
1198.8030       16873.57
1198.9041        19006.4
1199.0050       1907.137
1199.1060       103.8422
1199.2070       254.8796
1199.3080       16740.84
1199.4089       39890.76
1199.5100       30915.47
1199.6111       17802.68
1199.7120       8845.705
1199.8130        20452.7
1199.9141       18205.45
1200.0150       19454.94
1200.1160       38201.89
1200.2170       44495.11
1200.3180       40522.37
1200.4189       36622.86
1200.5200       41337.05
1200.6211       49163.54
1200.7219       52477.21
1200.8230       52719.78
1200.9241       51163.65
1201.0250       44691.93
1201.1260       30650.02
1201.2271       28370.72
1201.3280       38503.96
1201.4290       37954.73
1201.5300       30361.67
1201.6310       17903.37
1201.7319       4378.659
1201.8330       218.2644
1201.9341       4277.967
1202.0350       22864.72
1202.1360       28814.68
1202.2371       28439.38
1202.3380         22137.
1202.4390       4387.813
1202.5400       112.9959
1202.6410       163.3418
1202.7419       7998.979
1202.8430       30764.44
1202.9441       37108.01
1203.0449        12214.3
1203.1460       103.8422
1203.2471       7.727452
1203.3480       16.88124
1203.4490      -33.46457
1203.5500        35.1888
1203.6510       1618.793
1203.7520       15070.28
1203.8530       22356.69
1203.9540       20603.74
1204.0549       35574.75
1204.1560       58486.66
1204.2571       56390.45
1204.3580       54664.96
1204.4590       59960.43
1204.5601       63086.45
1204.6610       63077.29
1204.7620       63301.55
1204.8630       64230.66
1204.9640       64358.82
1205.0649       63054.41
1205.1660       55424.73
1205.2671       42064.78
1205.3679       38014.23
1205.4690       38462.77
1205.5701         21780.
1205.6710       19798.21
1205.7720       40261.49
1205.8730       53809.09
1205.9740       57333.29
1206.0750       56692.53
1206.1760       27025.12
1206.2771       2534.171
1206.3779       8918.936
1206.4790       41034.98
1206.5801       61205.34
1206.6810        60637.8
1206.7820       54111.16
1206.8831       59003.86
1206.9840       66180.42
1207.0850       66784.57
1207.1860       65342.85
1207.2870       65535.09
1207.3879       66825.77
1207.4890       68207.98
1207.5901       68011.18
1207.6909       66276.55
1207.7920       61191.61
1207.8931       57731.49
1207.9940       63022.36
1208.0950       70468.97
1208.1960       71009.05
1208.2970       67553.48
1208.3979       64962.97
1208.4990       67800.64
1208.6001       68725.18
1208.7009       68015.76
1208.8020        69434.6
1208.9031       70871.73
1209.0040       68098.14
1209.1050       58637.71
1209.2061       53763.32
1209.3070       39748.88
1209.4080        24869.4
1209.5090       44366.96
1209.6100       53497.86
1209.7109        41428.6
1209.8120       53626.01
1209.9131       62715.72
1210.0140       68088.99
1210.1150       71979.35
1210.2161        70107.4
1210.3170       66491.65
1210.4180       59562.24
1210.5190       56234.84
1210.6200       49689.88
1210.7209       39382.73
1210.8220       14475.28
1210.9231       863.6061
1211.0239       1678.293
1211.1250       30073.32
1211.2261       69988.39
1211.3270        68482.6
1211.4280       67773.17
1211.5291       81531.31
1211.6300       90913.95
1211.7310       92300.73
1211.8320       92795.05
1211.9330       93408.35
1212.0339       93252.73
1212.1350       93605.16
1212.2361       94273.39
1212.3370       94264.23
1212.4380         82346.
1212.5391       64583.09
1212.6400       63965.21
1212.7410       86726.09
1212.8420       90250.29
1212.9430       68473.45
1213.0439       42925.24
1213.1450       55227.92
1213.2461       34004.88
1213.3469        11381.3
1213.4480       35689.17
1213.5491        86822.2
1213.6500       101193.6
1213.7510       103106.8
1213.8521       102978.6
1213.9530       97793.02
1214.0540       62734.02
1214.1550        14589.7
1214.2560       18621.95
1214.3569       20585.43
1214.4580       13724.67
1214.5591        47131.4
1214.6600       81595.39
1214.7610       93669.23
1214.8621       98745.01
1214.9630       98378.86
1215.0640       95614.41
1215.1650       98584.82
1215.2660       105271.6
1215.3669       106617.3
1215.4680        105171.
1215.5691       84963.98
1215.6699        27821.5
1215.7710       21487.08
1215.8721       67063.77
1215.9730       103289.9
1216.0740       106777.5
1216.1750       107303.8
1216.2760       107262.6
1216.3770       106878.1
1216.4780       106516.6
1216.5790       106260.3
1216.6799       105399.8
1216.7810       104887.2
1216.8821       104305.9
1216.9830       103802.5
1217.0840       103184.6
1217.1851       102379.1
1217.2860       101637.6
1217.3870       100740.5
1217.4880       100223.3
1217.5890       99555.12
1217.6899       98603.12
1217.7910       98699.23
1217.8921       97728.94
1217.9929       97284.98
1218.0940        96328.4
1218.1951       95541.19
1218.2960       94808.88
1218.3970       93985.05
1218.4980       93261.88
1218.5990       92657.75
1218.7000       91962.05
1218.8010       90950.55
1218.9021       90254.88
1219.0029       89124.38
1219.1040       88735.35
1219.2051        87417.2
1219.3060       86922.89
1219.4070        86291.3
1219.5081       85659.67
1219.6090       84968.56
1219.7100        84149.3
1219.8110        83238.5
1219.9120       82808.27
1220.0129       82254.47
1220.1140       81439.78
1220.2151       80634.24
1220.3159       79856.17
1220.4170       79384.76
1220.5181       78739.41
1220.6190       77997.95
1220.7200         77673.
1220.8210       76789.66
1220.9220        75929.2
1221.0229        75453.2
1221.1240       75022.98
1221.2251       74377.64
1221.3259       73819.26
1221.4270       72981.69
1221.5281       72231.08
1221.6290        71530.8
1221.7300       71370.61
1221.8311       70528.47
1221.9320       70418.63
1222.0330       70134.86
1222.1340       69425.43
1222.2350       68954.02
1222.3359       68574.14
1222.4370       67937.95
1222.5381       67342.95
1222.6390       67013.42
1222.7400       66368.08
1222.8411       65979.04
1222.9420       65429.81
1223.0430       65210.12
1223.1440       64468.67
1223.2450       63759.25
1223.3459       63425.13
1223.4470       63013.22
1223.5481       62669.95
1223.6489       62239.72
1223.7500       61635.57
1223.8511       61356.38
1223.9520       60756.81
1224.0530       60454.73
1224.1541       60042.81
1224.2550        59530.2
1224.3560       59200.66
1224.4570       58683.48
1224.5580       58079.32
1224.6589       57823.02
1224.7600       57557.55
1224.8611       57264.64
1224.9620        56857.3
1225.0630       56385.88
1225.1641       56088.38
1225.2650       55456.76
1225.3660       55324.04
1225.4670       54866.35
1225.5680       54509.35
1225.6689       54069.98
1225.7700       53626.01
1225.8711       53470.39
1225.9719       53099.66
1226.0730       52664.87
1226.1741       52060.71
1226.2750       51653.37
1226.3760       51484.02
1226.4771       51351.29
1226.5780       50884.45
1226.6790       50609.84
1226.7800       50403.88
1226.8810       50037.73
1226.9819       49410.69
1227.0830       48531.93
1227.1841       45822.41
1227.2850       46714.91
1227.3860       47406.01
1227.4871       47195.48
1227.5880        47190.9
1227.6890       46554.71
1227.7900       45740.02
1227.8910       45547.79
1227.9919       46055.84
1228.0930       46367.06
1228.1941       46353.32
1228.2949       46092.45
1228.3960       45877.34
1228.4971       45753.76
1228.5980       45021.45
1228.6990       44838.38
1228.8000       44472.23
1228.9010       44243.38
1229.0020       44083.19
1229.1030       43479.04
1229.2040       43474.46
1229.3049       43350.89
1229.4060       42247.86
1229.5071       41698.63
1229.6080        42339.4
1229.7090       42504.16
1229.8101        42279.9
1229.9110        42119.7
1230.0120       41547.59
1230.1130       41332.48
1230.2140       41167.71
1230.3149       41396.56
1230.4160       41254.68
1230.5171       41259.25
1230.6179       41245.52
1230.7190       41044.14
1230.8201       40929.71
1230.9210       41007.52
1231.0220       40810.72
1231.1230        41012.1
1231.2240       40874.79
1231.3250       40627.64
1231.4260       40623.06
1231.5271       40256.91
1231.6279       40211.14
1231.7290       40046.37
1231.8301       40449.14
1231.9310       39918.22
1232.0320       39671.07
1232.1331       39895.34
1232.2340       39721.42
1232.3350       39639.03
1232.4360       39465.11
1232.5370       39382.72
1232.6379       39533.76
1232.7390       39405.61
1232.8401       39167.61
1232.9409       39108.11
1233.0420       39016.57
1233.1431       38838.07
1233.2440       38828.92
1233.3450       37780.81
1233.4460       35840.21
1233.5470       35959.21
1233.6479       34938.56
1233.7490       31885.78
1233.8501       37323.12
1233.9509       38092.04
1234.0520       38389.54
1234.1531        38220.2
1234.2540       38165.27
1234.3550         38060.
1234.4561         38298.
1234.5570       37918.12
1234.6580       38064.58
1234.7590       37986.77
1234.8600       37872.35
1234.9609       37570.27
1235.0620       37789.97
1235.1631       37519.93
1235.2640       37652.66
1235.3650       37675.55
1235.4661       37579.43
1235.5670       37263.62
1235.6680       37510.77
1235.7690       37510.78
1235.8700       37167.51
1235.9709       34691.41
1236.0720       35963.79
1236.1731       37181.24
1236.2739       36993.59
1236.3750       37039.35
1236.4761       37213.28
1236.5770       36874.59
1236.6780       36883.74
1236.7791       37108.01
1236.8800       36856.28
1236.9810       36824.24
1237.0820       36783.05
1237.1830       36741.86
1237.2839       36947.82
1237.3850       36668.63
1237.4861       36545.05
1237.5870       35638.82
1237.6880       36485.55
1237.7891       33785.19
1237.8900       33579.23
1237.9910       36700.66
1238.0920       36700.66
1238.1930       36458.09
1238.2939       36069.05
1238.3950       36494.71
1238.4961       36435.21
1238.5969        27583.5
1238.6980       30242.67
1238.7991       36403.17
1238.9000        36297.9
1239.0010       34590.72
1239.1021       33359.54
1239.2030       26626.93
1239.3040       34055.22
1239.4050       33986.57
1239.5060       26187.55
1239.6069       28837.57
1239.7080       34105.57
1239.8091       36343.67
1239.9100       30320.48
1240.0110       31167.21
1240.1121       32421.28
1240.2130       33432.77
1240.3140       35693.75
1240.4150       36091.94
1240.5160        36714.4
1240.6169       37295.66
1240.7180       37213.28
1240.8191       36989.01
1240.9199       37318.55
1241.0210       37405.51
1241.1221       37341.43
1241.2230       36851.71
1241.3240       35707.48
1241.4250       34064.38
1241.5260       33139.85
1241.6270        36494.7
1241.7280       32814.89
1241.8290       31917.82
1241.9299       34453.41
1242.0310       36490.13
1242.1321       36696.09
1242.2330       35693.75
1242.3340       35853.94
1242.4351       36682.36
1242.5360       36732.71
1242.6370       36755.59
1242.7380       36645.74
1242.8390       36773.89
1242.9399       36860.86
1243.0410        36673.2
1243.1421       37025.63
1243.2429       36947.82
1243.3440       36860.86
1243.4451       36746.43
1243.5460       37098.86
1243.6470       37075.98
1243.7480       37062.24
1243.8490       37094.27
1243.9500       37080.55
1244.0510       37158.35
1244.1521       37053.09
1244.2529       35908.87
1244.3540       31753.05
1244.4551       35469.48
1244.5560       34009.46
1244.6570        36357.4
1244.7581       36508.44
1244.8590       36609.13
1244.9600       36938.66
1245.0610       37011.89
1245.1620       36943.24
1245.2629       36956.97
1245.3640       37172.09
1245.4651       36902.05
1245.5659       36737.28
1245.6670       36805.93
1245.7681       36751.01
1245.8690        36732.7
1245.9700       36636.59
1246.0710       36650.32
1246.1720       36540.48
1246.2729       36366.55
1246.3740       36348.24
1246.4751       36284.17
1246.5759       36073.63
1246.6770       35927.17
1246.7781        36000.4
1246.8790       35863.09
1246.9800       35565.59
1247.0811       35588.48
1247.1820       35364.21
1247.2830       34796.68
1247.3840       33748.57
1247.4850       29867.37
1247.5859        32892.7
1247.6870        34416.8
1247.7881       34183.38
1247.8890       34014.03
1247.9900         33387.
1248.0911       33579.23
1248.1920       32856.08
1248.2930       33794.34
1248.3940        33881.3
1248.4950        33583.8
1248.5959       33043.73
1248.6970       32952.19
1248.7981        33107.8
1248.8989       32915.58
1249.0000       30888.02
1249.1011       30997.86
1249.2020       32549.43
1249.3030       32389.23
1249.4041        32256.5
1249.5050       32032.23
1249.6060       31688.97
1249.7070       30517.29
1249.8080       29336.45
1249.9089       31428.09
1250.0100       31121.43
1250.1111       31112.28
1250.2120       31171.78
1250.3130       31139.74
1250.4141       30750.71
1250.5150       30709.51
1250.6160       30714.09
1250.7170       30439.48
1250.8180       30219.79
1250.9189       30096.21
1251.0200        29881.1
1251.1211       29876.52
1251.2219       29963.48
1251.3230       29427.99
1251.4241       29427.99
1251.5250       29322.72
1251.6260        29405.1
1251.7271       28993.18
1251.8280       29112.18
1251.9290       29080.14
1252.0300       29025.22
1252.1310       28819.26
1252.2319       28878.76
1252.3330       28526.34
1252.4341       28594.99
1252.5350       28201.38
1252.6360       27945.07
1252.7371       27794.04
1252.8380       27917.61
1252.9390       28292.92
1253.0400       28169.34
1253.1410        28315.8
1253.2419       28224.26
1253.3430       28096.11
1253.4441       28192.22
1253.5449       28164.76
1253.6460       28013.72
1253.7471       28013.73
1253.8480       27885.57
1253.9490       27990.84
1254.0500       27926.76
1254.1510       27757.42
1254.2520        27780.3
1254.3530       27720.81
1254.4540       27537.73
1254.5549       27496.54
1254.6560       27601.81
1254.7571       27615.54
1254.8580       27313.46
1254.9590       27322.62
1255.0601       27391.27
1255.1610       27258.54
1255.2620       27340.93
1255.3630       27331.77
1255.4640       27194.46
1255.5649       27052.58
1255.6660       27231.08
1255.7671       26910.69
1255.8679       27125.81
1255.9690       26983.93
1256.0701       26805.43
1256.1710       26828.31
1256.2720         26691.
1256.3730       26576.58
1256.4740       26622.35
1256.5750       26379.78
1256.6760       26082.28
1256.7771       25995.32
1256.8779       26045.66
1256.9790        26077.7
1257.0801       26269.93
1257.1810       26324.85
1257.2820       26031.93
1257.3831       26224.16
1257.4840       26128.04
1257.5850       26013.63
1257.6860       26096.01
1257.7870       24992.98
1257.8879       22370.42
1257.9890       14553.09
1258.0901       19111.67
1258.1910       23308.68
1258.2920       22146.15
1258.3931       24082.18
1258.4940        25523.9
1258.5950       25180.63
1258.6960       25368.28
1258.7970       25203.51
1258.8979       25203.51
1258.9990       25084.51
1259.1001       25317.94
1259.2009       24906.02
1259.3020       24873.98
1259.4031       24997.56
1259.5040       24942.63
1259.6050       24649.71
1259.7061        24851.1
1259.8070        24869.4
1259.9080       24851.09
1260.0090        24690.9
1260.1100       23473.45
1260.2109       22288.04
1260.3120       16937.65
1260.4131       23130.18
1260.5140       22800.64
1260.6150       23125.61
1260.7161       24274.41
1260.8170        24512.4
1260.9180       24320.18
1261.0190        24155.4
1261.1200       24329.33
1261.2209       24352.21
1261.3220       24228.64
1261.4231       24237.79
1261.5239       24219.49
1261.6250       24169.14
1261.7261       24008.95
1261.8270       24132.52
1261.9280       24132.52
1262.0291       23917.41
1262.1300       23935.72
1262.2310       24050.14
1262.3320       23908.25
1262.4330       24050.14
1262.5339       23844.18
1262.6350       23857.91
1262.7361       23789.25
1262.8370       23885.37
1262.9380       23889.95
1263.0391       23752.64
1263.1400       23821.29
1263.2410        23720.6
1263.3420       23812.14
1263.4430       23752.64
1263.5439       23729.76
1263.6450       23615.33
1263.7461       23651.95
1263.8469       23569.57
1263.9480       23702.29
1264.0491       23423.11
1264.1500       23597.03
1264.2510       23198.83
1264.3521       23413.95
1264.4530       23363.61
1264.5540        23285.8
1264.6550       23413.95
1264.7560       23409.37
1264.8569       23363.61
1264.9580       23386.49
1265.0591       23281.22
1265.1600       23331.57
1265.2610       23258.34
1265.3621       23235.45
1265.4630       23217.14
1265.5640       23198.83
1265.6650       23162.22
1265.7660       23093.57
1265.8669       22896.76
1265.9680       23020.33
1266.0691       22896.76
1266.1699       22915.07
1266.2710       21885.27
1266.3721       22562.65
1266.4730       22526.04
1266.5740       22626.72
1266.6750       22516.88
1266.7760       22727.42
1266.8770       22590.11
1266.9780       22731.99
1267.0791       22548.92
1267.1799       22640.46
1267.2810       22480.26
1267.3821       22526.03
1267.4830       22489.42
1267.5840       22521.46
1267.6851       22379.57
1267.7860       22443.65
1267.8870       22388.73
1267.9880       22352.11
1268.0890       22265.15
1268.1899       22260.57
1268.2910       22201.07
1268.3921       22182.77
1268.4929       21784.58
1268.5940       21844.08
1268.6951       22022.57
1268.7960       21953.92
1268.8970       21793.73
1268.9980       21784.58
1269.0990       21963.07
1269.2000       22059.19
1269.3010       21894.42
1269.4021       21912.73
1269.5029       21972.23
1269.6040       21848.65
1269.7051       21761.69
1269.8060       21752.54
1269.9070       21757.12
1270.0081       21592.35
1270.1090       21336.04
1270.2100       21262.81
1270.3110       21445.88
1270.4120       21409.27
1270.5129       21386.39
1270.6140       21299.43
1270.7151       21230.77
1270.8160       21226.19
1270.9170       21221.62
1271.0181       21024.81
1271.1190       21084.31
1271.2200       20910.39
1271.3210       20969.89
1271.4220       20759.35
1271.5229       20612.89
1271.6240       20713.59
1271.7251       20649.51
1271.8259       20516.78
1271.9270       20567.13
1272.0281       20352.01
1272.1290       20374.89
1272.2300       20347.43
1272.3311       20178.09
1272.4320       20255.89
1272.5330       20200.97
1272.6340       20146.05
1272.7350       20045.36
1272.8359       19995.01
1272.9370       19926.36
1273.0381       19647.17
1273.1390       19665.48
1273.2400       19569.36
1273.3411       19532.75
1273.4420       19596.82
1273.5430        19601.4
1273.6440       19450.36
1273.7450       19308.48
1273.8459       19317.63
1273.9470       19281.02
1274.0481       19322.21
1274.1489       19262.71
1274.2500        19107.1
1274.3511       19061.33
1274.4520       19029.29
1274.5530       18924.02
1274.6541       18873.68
1274.7550       18814.17
1274.8560       18891.98
1274.9570       18791.29
1275.0580       18695.17
1275.1589       18777.56
1275.2600       17903.37
1275.3611       17848.45
1275.4620       18310.71
1275.5630       18617.37
1275.6641       18805.02
1275.7650        18768.4
1275.8660       18901.13
1275.9670       18754.68
1276.0680       18621.94
1276.1689       18599.06
1276.2700       18534.98
1276.3711        18512.1
1276.4719       18480.06
1276.5730       18461.75
1276.6741       18443.45
1276.7750       18425.14
1276.8760       18370.21
1276.9771       18141.37
1277.0780       18251.21
1277.1790       18182.56
1277.2800       18132.22
1277.3810       17962.87
1277.4819       17766.07
1277.5830        17482.3
1277.6841       17706.57
1277.7850       17972.03
1277.8860       18008.64
1277.9871       17843.87
1278.0880       18008.64
1278.1890       17418.22
1278.2900       17450.26
1278.3910       8593.976
1278.4919       17921.68
1278.5930       17834.72
1278.6941       17820.99
1278.7949       17720.29
1278.8960       17642.49
1278.9971       17788.95
1279.0980       17738.61
1279.1990        17660.8
1279.3000       17834.72
1279.4010       17729.45
1279.5020       17582.99
1279.6030       17326.68
1279.7041       14022.17
1279.8049       12539.26
1279.9060       17381.61
1280.0071       16489.11
1280.1080       17198.53
1280.2090       17308.38
1280.3101       17377.03
1280.4110       17322.11
1280.5120       17171.07
1280.6130       17386.18
1280.7140       17308.38
1280.8149       17322.11
1280.9160       17061.22
1281.0171       17235.15
1281.1179       17157.34
1281.2190       16832.38
1281.3201       16955.96
1281.4210       17029.19
1281.5220       17189.38
1281.6230       17258.03
1281.7240       17088.69
1281.8250        17006.3
1281.9260       16974.26
1282.0271        16946.8
1282.1279       16937.65
1282.2290       16594.38
1282.3301       16470.81
1282.4310       16772.88
1282.5320       16699.65
1282.6331       16717.96
1282.7340       16740.84
1282.8350       16736.27
1282.9360        16649.3
1283.0370       16425.04
1283.1379       16022.27
1283.2390       16534.88
1283.3401       16640.15
1283.4410       16644.73
1283.5420       16479.96
1283.6431       16507.42
1283.7440       16457.07
1283.8450        16470.8
1283.9460       16553.19
1284.0470       16562.34
1284.1479       16447.92
1284.2490       16461.65
1284.3501       16470.81
1284.4509       16411.31
1284.5520       16425.04
1284.6531       16356.38
1284.7540       16319.77
1284.8550       16397.58
1284.9561         16393.
1285.0570       16319.77
1285.1580       16306.04
1285.2590       16241.96
1285.3600       16113.81
1285.4609       15903.27
1285.5620       16383.85
1285.6631       16342.65
1285.7640       16521.15
1285.8650       16406.73
1285.9661       16365.54
1286.0670       16356.38
1286.1680       16397.57
1286.2690       16196.19
1286.3700       16141.27
1286.4709       16187.04
1286.5720       16136.69
1286.6731       16090.92
1286.7739       16136.69
1286.8750       16118.38
1286.9761       16283.15
1287.0770       16219.08
1287.1780       16187.04
1287.2791       16104.65
1287.3800       15939.89
1287.4810       16068.04
1287.5820       16090.92
1287.6830       16100.08
1287.7839       16081.77
1287.8850       16040.58
1287.9861       16031.42
1288.0870       15962.77
1288.1880       15862.08
1288.2891       15935.31
1288.3900       15825.46
1288.4910       15848.35
1288.5920       15866.66
1288.6930        15898.7
1288.7939       15834.62
1288.8950       15688.16
1288.9961       15843.77
1289.0969       15788.85
1289.1980       15770.54
1289.2991       15802.58
1289.4000       15866.66
1289.5010       15830.04
1289.6021       15807.16
1289.7030       15761.39
1289.8040       15848.35
1289.9050       15724.77
1290.0060       15674.43
1290.1069       15724.77
1290.2080       15614.93
1290.3091       15408.97
1290.4100       15592.04
1290.5110       15582.89
1290.6121         15560.
1290.7130       15587.47
1290.8140       15294.54
1290.9150        15619.5
1291.0160        15660.7
1291.1169       15610.35
1291.2180       15578.31
1291.3191       15633.23
1291.4199       15573.74
1291.5210       15546.28
1291.6221       15578.31
1291.7230       15637.81
1291.8240        15619.5
1291.9250       15399.81
1292.0260       15413.54
1292.1270       15573.73
1292.2280        15482.2
1292.3291       15514.23
1292.4299       15546.27
1292.5310       15523.39
1292.6321       15367.78
1292.7330       15358.62
1292.8340       15592.04
1292.9351       15445.58
1293.0360       15376.93
1293.1370       15418.12
1293.2380       15413.54
1293.3390       15248.78
1293.4399       15280.81
1293.5410       15376.93
1293.6421       15381.51
1293.7429       15253.35
1293.8440       15285.39
1293.9451       15276.24
1294.0460       15285.39
1294.1470       15203.01
1294.2480       15294.54
1294.3490       15335.74
1294.4500       15390.66
1294.5510       15308.28
1294.6521        15184.7
1294.7529       15308.28
1294.8540       15257.93
1294.9551       15308.28
1295.0560       15285.39
1295.1570       15285.39
1295.2581       15221.31
1295.3590       15285.39
1295.4600       15248.78
1295.5610       15216.74
1295.6620       15198.43
1295.7629       15175.54
1295.8640       15084.01
1295.9651       15056.55
1296.0660       15074.85
1296.1670       15051.97
1296.2681       15088.59
1296.3690       15074.86
1296.4700       15116.04
1296.5710        15125.2
1296.6720       15138.93
1296.7729       15033.66
1296.8740       15203.01
1296.9751        15125.2
1297.0759       15180.13
1297.1770       15189.28
1297.2781       15093.16
1297.3790       15157.24
1297.4800       15198.43
1297.5811       15235.04
1297.6820       15070.28
1297.7830       15116.04
1297.8840       15239.62
1297.9850       15138.93
1298.0859       15216.74
1298.1870       15074.85
1298.2881       15143.51
1298.3890       15015.35
1298.4900       15340.31
1298.5911       15225.89
1298.6920        15422.7
1298.7930       15340.31
1298.8940       15431.85
1298.9950       15564.58
1299.0959       15546.27
1299.1970       15656.12
1299.2981       15532.54
1299.3989       15669.85
1299.5000       15614.93
1299.6011       15486.77
1299.7020       15564.58
1299.8030        15738.5
1299.9041       15646.96
1300.0050       15715.62
1300.1060       15793.43
1300.2070       15683.58
1300.3080       15747.66
1300.4089       15706.47
1300.5100       15848.35
1300.6111       15912.43
1300.7120       15816.31
1300.8130       15743.08
1300.9141       15921.58
1301.0150       15715.62
1301.1160       15939.89
1301.2170       15765.96
1301.3180       15907.85
1301.4189       15830.04
1301.5200       15999.39
1301.6211       16045.15
1301.7219       15971.92
1301.8230        15958.2
1301.9241        15839.2
1302.0250       15907.85
1302.1260       15962.77
1302.2271       16132.12
1302.3280       16026.85
1302.4290       16063.46
1302.5300       16104.65
1302.6310       16081.77
1302.7319       16022.27
1302.8330       16283.15
1302.9341       16090.92
1303.0350       16251.12
1303.1360       16159.58
1303.2371       16205.35
1303.3380       16168.73
1303.4390       16365.54
1303.5400         16155.
1303.6410       16177.89
1303.7419       16205.35
1303.8430       16081.77
1303.9441       16292.31
1304.0449       16209.92
1304.1460       16370.11
1304.2471       16347.23
1304.3480       16338.08
1304.4490       16356.38
1304.5500       16402.15
1304.6510       16370.11
1304.7520       16374.69
1304.8530       16434.19
1304.9541       16388.42
1305.0549       16530.31
1305.1560       16521.15
1305.2571       16466.23
1305.3580       16676.77
1305.4590       16727.11
1305.5601       16525.73
1305.6610       16544.04
1305.7620       16667.61
1305.8630       16759.15
1305.9640        16708.8
1306.0649       16745.42
1306.1660       16685.92
1306.2671       16754.57
1306.3680       16791.19
1306.4690       16882.73
1306.5701       16942.22
1306.6710        16928.5
1306.7720       17038.34
1306.8730       16960.53
1306.9740       17056.65
1307.0750       17070.38
1307.1760       17148.18
1307.2771       17216.84
1307.3779        17184.8
1307.4790       17267.18
1307.5801       17340.41
1307.6810       17258.03
1307.7820       17381.61
1307.8831       17404.49
1307.9840       17491.45
1308.0850       17418.22
1308.1860       17528.07
1308.2870       17500.61
1308.3879       17431.95
1308.4890        17541.8
1308.5901       17564.68
1308.6910       17729.45
1308.7920       17807.26
1308.8931       17747.76
1308.9940       17866.76
1309.0950       17825.56
1309.1960       17898.79
1309.2970       17999.49
1309.3979       17949.14
1309.4990       18008.64
1309.6001       17926.26
1309.7009       17903.37
1309.8020       18072.72
1309.9031       18086.45
1310.0040       18210.03
1310.1050       18145.95
1310.2061       17605.88
1310.3070       15756.81
1310.4080       14397.47
1310.5090       16846.11
1310.6100       18104.76
1310.7109       18296.99
1310.8120       18063.56
1310.9131       18361.06
1311.0140       18448.02
1311.1150       18470.91
1311.2161       18489.21
1311.3170       18493.79
1311.4180       18493.79
1311.5190       18644.83
1311.6200       18507.52
1311.7209       18649.41
1311.8220       18612.79
1311.9231       18644.83
1312.0239       18585.33
1312.1250        18571.6
1312.2261       18562.44
1312.3270       18617.37
1312.4280       18425.14
1312.5291       17930.83
1312.6300       16397.57
1312.7310       17326.68
1312.8320       18205.45
1312.9330       18461.75
1313.0339       18361.06
1313.1350       18287.83
1313.2361       18534.98
1313.3370       18475.48
1313.4380       18489.21
1313.5391       18507.52
1313.6400       18544.14
1313.7410       18461.75
1313.8420       18388.52
1313.9430       18365.64
1314.0439       18374.79
1314.1450       18287.83
1314.2461       18219.18
1314.3469       18251.22
1314.4480       18278.68
1314.5491        18333.6
1314.6500       18342.75
1314.7510       18072.72
1314.8521       18228.33
1314.9530       18191.71
1315.0540       18210.02
1315.1550       17981.18
1315.2560       17994.91
1315.3569       16493.69
1315.4580       17509.76
1315.5591       17610.45
1315.6600       17317.53
1315.7610       17331.26
1315.8621       14896.36
1315.9630        17363.3
1316.0640       17853.03
1316.1650       17729.45
1316.2660       17239.72
1316.3669       17546.38
1316.4680       17637.91
1316.5691       16223.65
1316.6699       12681.14
1316.7710       16104.65
1316.8721       17349.57
1316.9730       17491.45
1317.0740       17331.26
1317.1750       17528.07
1317.2760       17395.34
1317.3770       17331.26
1317.4780       17276.34
1317.5791       16928.49
1317.6799       16745.42
1317.7810       17056.65
1317.8821       17020.03
1317.9830       17038.34
1318.0840       16905.61
1318.1851       16974.26
1318.2860       16974.26
1318.3870       16910.19
1318.4880       16786.61
1318.5890       16672.19
1318.6899        16649.3
1318.7910       16553.19
1318.8921       16360.96
1318.9930       16548.61
1319.0940       16370.11
1319.1951       16342.65
1319.2960       16283.15
1319.3970       16338.08
1319.4980       16141.27
1319.5990       16100.08
1319.7000       15926.16
1319.8010       15990.23
1319.9021       15953.62
1320.0029       15830.04
1320.1040       15889.54
1320.2051       15784.27
1320.3060       15688.16
1320.4070       15752.23
1320.5081       15775.12
1320.6090       15592.04
1320.7100       15642.39
1320.8110       15605.77
1320.9120       15495.93
1321.0129       15573.73
1321.1140       15381.51
1321.2151       15404.39
1321.3160        15482.2
1321.4170       15395.24
1321.5181       15253.35
1321.6190       15441.01
1321.7200       15354.04
1321.8210       15441.01
1321.9220         15441.
1322.0229       15523.39
1322.1240       15733.93
1322.2251        15482.2
1322.3259       15299.12
1322.4270       15390.66
1322.5281       15445.58
1322.6290       15390.66
1322.7300        15363.2
1322.8311       15413.54
1322.9320       15354.04
1323.0330       15317.43
1323.1340       15322.01
1323.2350       15225.89
1323.3359       15335.74
1323.4370       15157.24
1323.5381       15207.58
1323.6390       15166.39
1323.7400       15193.85
1323.8411       15138.93
1323.9420       15129.78
1324.0430       15111.47
1324.1440       15088.59
1324.2450       15129.78
1324.3459       15148.08
1324.4470       15138.93
1324.5481        14946.7
1324.6489       15038.24
1324.7500       15015.36
1324.8511        14827.7
1324.9520       14836.85
1325.0530        14887.2
1325.1541       14832.28
1325.2550       14813.97
1325.3560       14923.82
1325.4570       14740.74
1325.5580       14603.43
1325.6589       14804.82
1325.7600       14667.51
1325.8611       14594.28
1325.9620       14489.01
1326.0630        14530.2
1326.1641        14630.9
1326.2650       14484.43
1326.3660       14365.44
1326.4670       14525.63
1326.5680       14534.78
1326.6689       14466.13
1326.7700       14406.63
1326.8711       14420.36
1326.9719       14191.51
1327.0730       13884.86
1327.1741       14049.63
1327.2750       14099.97
1327.3760       14296.78
1327.4771       14328.82
1327.5780       14127.44
1327.6790       13472.94
1327.7800       13413.44
1327.8811       13742.98
1327.9819       14099.97
1328.0830       14026.75
1328.1841       14305.94
1328.2850       14186.94
1328.3860        13916.9
1328.4871       13019.83
1328.5880       13445.48
1328.6890       13907.75
1328.7900       14196.09
1328.8910        14035.9
1328.9919       14045.05
1329.0930       14099.97
1329.1941       13948.94
1329.2949       14054.21
1329.3960        13916.9
1329.4971       13903.17
1329.5980       13903.17
1329.6990        13916.9
1329.8000       13884.86
1329.9010        13797.9
1330.0020       13674.33
1330.1030       13523.29
1330.2041       13807.05
1330.3049       13756.71
1330.4060       13921.48
1330.5071       13756.71
1330.6080       13926.05
1330.7090       13596.52
1330.8101       13147.98
1330.9110       13582.79
1331.0120       13596.52
1331.1130       13633.13
1331.2140        13619.4
1331.3149       13688.06
1331.4160       13775.02
1331.5171       13742.98
1331.6180       13793.32
1331.7190       13779.59
1331.8201       13642.29
1331.9210       13669.75
1332.0220       13720.09
1332.1230       13633.13
1332.2240       13752.13
1332.3250       13756.71
1332.4260       13623.98
1332.5271       13692.63
1332.6279       13683.48
1332.7290       13532.44
1332.8301       13591.94
1332.9310       13724.67
1333.0320       12552.99
1333.1331       12479.76
1333.2340       12063.26
1333.3350       11660.49
1333.4360       10919.04
1333.5370       9330.854
1333.6379       10626.12
1333.7390        13422.6
1333.8401       13614.83
1333.9410       13692.63
1334.0420       13669.75
1334.1431       13692.63
1334.2440       13692.63
1334.3450       13761.29
1334.4460        13738.4
1334.5470       13756.71
1334.6479       13761.29
1334.7490       13688.06
1334.8501       13793.33
1334.9509       13710.94
1335.0520       13829.94
1335.1531       13816.21
1335.2540       13550.75
1335.3550       13239.52
1335.4561       13079.33
1335.5570       12974.06
1335.6580       12859.64
1335.7590       11330.96
1335.8600       11642.19
1335.9609       12978.64
1336.0620       13807.05
1336.1631       13779.59
1336.2640       13861.98
1336.3650       13765.86
1336.4661       13573.63
1336.5670       13816.21
1336.6680       13175.44
1336.7690       12607.91
1336.8700        13482.1
1336.9709       13820.79
1337.0720       13816.21
1337.1731       13825.36
1337.2739       13912.32
1337.3750       13871.13
1337.4761       13962.67
1337.5770       13980.98
1337.6780       14054.21
1337.7791       13926.05
1337.8800       14003.86
1337.9810       13999.28
1338.0820       13724.67
1338.1830       13839.09
1338.2839       13504.98
1338.3850       11701.68
1338.4861       13340.21
1338.5870       14045.05
1338.6880       14113.71
1338.7891       14090.82
1338.8900       13948.94
1338.9910       13729.25
1339.0920       13820.78
1339.1930       14141.17
1339.2939       14186.94
1339.3950       14260.17
1339.4961       14159.47
1339.5969       14173.21
1339.6980       14136.59
1339.7991       14305.94
1339.9000       14292.21
1340.0010       14200.67
1340.1021       14374.59
1340.2030       14228.13
1340.3040       14251.01
1340.4050       14264.74
1340.5061       14122.86
1340.6069       13871.13
1340.7080       13207.48
1340.8091       14447.82
1340.9100       14434.09
1341.0110       14489.01
1341.1121       14543.93
1341.2130       14484.43
1341.3140       14543.93
1341.4150        14530.2
1341.5160       14493.59
1341.6169       14608.01
1341.7180       14598.86
1341.8191       14585.13
1341.9199       14443.24
1342.0210       14681.24
1342.1221        14511.9
1342.2230       14557.67
1342.3240       14589.71
1342.4250       14612.59
1342.5260       14640.05
1342.6270       14937.55
1342.7280       14777.36
1342.8291       14731.59
1342.9299        14768.2
1343.0310       14759.05
1343.1321       14722.43
1343.2330       14882.63
1343.3340       14832.28
1343.4351       14905.51
1343.5360       14960.43
1343.6370       14841.43
1343.7380       14910.09
1343.8390       14791.09
1343.9399       14850.59
1344.0410       14951.28
1344.1421       14868.89
1344.2430       14864.32
1344.3440       14804.82
1344.4451       14965.01
1344.5460       14955.85
1344.6470       14818.55
1344.7480       15033.66
1344.8490       14937.55
1344.9500       14987.89
1345.0510       15033.66
1345.1521       15051.97
1345.2529       14942.13
1345.3540       14868.89
1345.4551       14864.32
1345.5560       14873.47
1345.6570       14997.05
1345.7581       15019.93
1345.8590       15024.51
1345.9600       15079.43
1346.0610       15097.74
1346.1620       14882.63
1346.2629       13706.36
1346.3640       14186.94
1346.4651       14864.32
1346.5660       14896.36
1346.6670       15097.74
1346.7681       14841.43
1346.8690       14809.39
1346.9700       14759.05
1347.0710       14745.32
1347.1720       14759.05
1347.2729       14594.28
1347.3740        14470.7
1347.4751       14562.24
1347.5759       14218.97
1347.6770       11765.76
1347.7781       11623.88
1347.8790       11811.53
1347.9800       14447.82
1348.0811       14283.05
1348.1820       12543.83
1348.2830       13747.56
1348.3840       13866.55
1348.4850       13628.56
1348.5859       13573.63
1348.6870        14035.9
1348.7881       14269.32
1348.8890       14173.21
1348.9900        13916.9
1349.0911       13605.67
1349.1920       14040.48
1349.2930       13912.32
1349.3940        14035.9
1349.4950       14150.32
1349.5959       14099.98
1349.6970       13921.48
1349.7981       13861.98
1349.8989       13912.32
1350.0000        13916.9
1350.1011       13985.55
1350.2020       13944.36
1350.3030       13871.13
1350.4041       13880.28
1350.5050       13971.82
1350.6060       13710.94
1350.7070       13610.25
1350.8080       13884.86
1350.9089       13729.25
1351.0100       13871.13
1351.1111       13761.29
1351.2120       13775.02
1351.3130       13692.63
1351.4141       13752.13
1351.5150       13852.82
1351.6160       13697.21
1351.7170       13724.67
1351.8180        13619.4
1351.9189       13537.02
1352.0200       13605.67
1352.1211       13605.67
1352.2219       13683.48
1352.3230       13660.59
1352.4241       13605.67
1352.5250       13701.79
1352.6260       13669.75
1352.7271       13610.25
1352.8280       13527.86
1352.9290        13619.4
1353.0300       13729.25
1353.1311       13555.33
1353.2319       13372.25
1353.3330       13614.83
1353.4341       13431.75
1353.5350       13413.44
1353.6360       13578.21
1353.7371       13390.56
1353.8380        13184.6
1353.9390        13244.1
1354.0400       13289.87
1354.1410       13234.94
1354.2419       13285.29
1354.3430       13344.79
1354.4441       13463.79
1354.5449       13399.71
1354.6460       13317.33
1354.7471        13244.1
1354.8480        13321.9
1354.9490       13225.79
1355.0500       13234.94
1355.1510       13216.64
1355.2520       13129.68
1355.3530       13189.17
1355.4541       13042.71
1355.5549       13161.71
1355.6560       13129.67
1355.7571       13061.02
1355.8580       12978.64
1355.9590       12987.79
1356.0601       13051.87
1356.1610       12905.41
1356.2620       12955.75
1356.3630       12964.91
1356.4640       11843.57
1356.5649       11651.34
1356.6660       11253.15
1356.7671       12955.75
1356.8680       12983.21
1356.9690       12264.64
1357.0701       12617.06
1357.1710       12786.41
1357.2720        12768.1
1357.3730       13038.14
1357.4740       12772.68
1357.5750       12882.52
1357.6760        12887.1
1357.7771       12758.95
1357.8779       12786.41
1357.9790       12891.68
1358.0801       12996.95
1358.1810       12996.95
1358.2820       12859.64
1358.3831       12974.06
1358.4840       12502.64
1358.5850       12974.06
1358.6860       12919.14
1358.7870       12868.79
1358.8879       12845.91
1358.9890       12516.37
1359.0901       12520.95
1359.1910       12909.98
1359.2920       12868.79
1359.3931       12818.45
1359.4940       12914.56
1359.5950       12919.14
1359.6960       12786.41
1359.7970       12818.45
1359.8979       12832.18
1359.9990        12768.1
1360.1001       12896.25
1360.2009       12786.41
1360.3020       12882.52
1360.4031       12795.56
1360.5040       12772.68
1360.6050       12777.26
1360.7061       12575.87
1360.8070       12772.68
1360.9080       12726.91
1361.0090       12704.02
1361.1100       12726.91
1361.2109       12607.91
1361.3120       12539.26
1361.4131       12717.75
1361.5140       12740.64
1361.6150       12800.14
1361.7161        12887.1
1361.8170       12740.64
1361.9180       12809.29
1362.0190       12704.03
1362.1200       12237.18
1362.2209       12758.95
1362.3220       12740.64
1362.4231        12827.6
1362.5239        12708.6
1362.6250       12749.79
1362.7261       12740.64
1362.8270       12740.64
1362.9280       12763.52
1363.0291       12681.14
1363.1300       12671.99
1363.2310       12823.02
1363.3320       12736.06
1363.4330       12704.02
1363.5339       12607.91
1363.6350       12667.41
1363.7361       12543.83
1363.8370       12658.25
1363.9380       12690.29
1364.0391       12681.14
1364.1400       12681.14
1364.2410       12749.79
1364.3420       12676.56
1364.4430       12758.95
1364.5439       12699.45
1364.6450       12681.14
1364.7461       12736.06
1364.8469       12662.83
1364.9480       12635.37
1365.0491       12685.72
1365.1500       12818.45
1365.2510       12717.76
1365.3521       12639.95
1365.4530       12726.91
1365.5540       12800.14
1365.6550       12722.33
1365.7561       12534.68
1365.8569       12493.49
1365.9580       12681.14
1366.0591       12456.87
1366.1600       12479.76
1366.2610       12498.06
1366.3621       12594.18
1366.4630       12337.87
1366.5640       12342.45
1366.6650       12282.95
1366.7660       12447.72
1366.8669       12333.29
1366.9680       12580.45
1367.0691       12397.37
1367.1700       12525.53
1367.2710       12429.41
1367.3721       12484.33
1367.4730       12621.64
1367.5740       12594.18
1367.6750       12786.41
1367.7760       12612.49
1367.8770       12337.87
1367.9780       11349.26
1368.0791       11257.73
1368.1799        12392.8
1368.2810       12145.64
1368.3821       11806.95
1368.4830       12763.52
1368.5840       12919.14
1368.6851       12900.83
1368.7860       12983.21
1368.8870       12992.37
1368.9880       12974.06
1369.0890        13006.1
1369.1899       13070.18
1369.2910       12914.56
1369.3921       13088.48
1369.4930       13157.14
1369.5940        13244.1
1369.6951       13120.52
1369.7960       13074.75
1369.8970       13138.83
1369.9980       13134.25
1370.0990       13234.94
1370.2000       12823.02
1370.3010       12347.03
1370.4021       12905.41
1370.5029       13102.21
1370.6040       11912.22
1370.7051       13166.29
1370.8060       13271.56
1370.9070       13408.87
1371.0081       13390.56
1371.1090       13212.06
1371.2100       13239.52
1371.3110       13427.17
1371.4120       13399.71
1371.5129        13244.1
1371.6140       13427.17
1371.7151       13390.56
1371.8160        13381.4
1371.9170       13395.13
1372.0181       13271.56
1372.1190       13353.94
1372.2200       13372.25
1372.3210       13189.17
1372.4220       13340.21
1372.5229       13299.02
1372.6240       13230.37
1372.7251       13280.71
1372.8259       12804.72
1372.9270       12987.79
1373.0281       13106.79
1373.1290       13225.79
1373.2300       13198.33
1373.3311       13147.98
1373.4320       13289.87
1373.5330       13395.13
1373.6340       13083.91
1373.7350       13253.25
1373.8359       13028.98
1373.9370       13111.37
1374.0381        13065.6
1374.1390       13024.41
1374.2400       13070.17
1374.3411       13093.06
1374.4420       13074.75
1374.5430       12951.18
1374.6440       12310.41
1374.7450       9459.008
1374.8459       9504.777
1374.9470       11367.57
1375.0481       12424.83
1375.1489       8603.131
1375.2500       10621.54
1375.3511       12580.45
1375.4520       11962.57
1375.5530       7230.063
1375.6541        9751.93
1375.7550       9889.236
1375.8560       9751.928
1375.9570       11724.57
1376.0581       11843.57
1376.1589       12704.02
1376.2600       12877.95
1376.3611       12804.72
1376.4620        12827.6
1376.5630       12845.91
1376.6641       12781.83
1376.7650        12649.1
1376.8660       10452.19
1376.9670       8749.591
1377.0680       9001.318
1377.1689       10493.38
1377.2700       9816.006
1377.3711       11308.07
1377.4719       12667.41
1377.5730       12722.33
1377.6741       12960.33
1377.7750       12832.18
1377.8760       12502.64
1377.9771       12676.56
1378.0780       11550.65
1378.1790       12099.87
1378.2800       12699.45
1378.3811       12722.33
1378.4819        12351.6
1378.5830       12488.91
1378.6841       12571.29
1378.7850       12690.29
1378.8860        12649.1
1378.9871       12644.53
1379.0880        12232.6
1379.1890       10493.38
1379.2900        10351.5
1379.3910       11120.42
1379.4919       11701.69
1379.5930       11028.88
1379.6941       12333.29
1379.7950       12479.76
1379.8960       12406.53
1379.9971       12401.95
1380.0980       12488.91
1380.1990       12488.91
1380.3000       12498.06
1380.4010       12342.45
1380.5020       12392.79
1380.6030       12420.26
1380.7041       12369.91
1380.8049       12264.64
1380.9060        12470.6
1381.0071       12429.41
1381.1080       12452.29
1381.2090       12420.26
1381.3101       12420.26
1381.4110       12301.26
1381.5120       12365.33
1381.6130       12406.53
1381.7140       12388.22
1381.8149       12365.33
1381.9160       12342.45
1382.0171       12429.41
1382.1180       12420.26
1382.2190       12305.83
1382.3201       12324.14
1382.4210       12443.14
1382.5220       12337.87
1382.6230       12420.26
1382.7240       12424.83
1382.8250       12360.76
1382.9260       12466.03
1383.0271       12305.83
1383.1279       12365.33
1383.2290       12379.06
1383.3301       12401.95
1383.4310       12118.18
1383.5320       10731.38
1383.6331         10173.
1383.7340       11486.57
1383.8350        11976.3
1383.9360       10246.23
1384.0370       10607.81
1384.1379       12136.49
1384.2390       11838.99
1384.3401       9967.044
1384.4410       9651.237
1384.5420       11445.38
1384.6431       11523.19
1384.7440       11957.99
1384.8450       11706.26
1384.9460       12177.68
1385.0470       12287.53
1385.1479       12269.22
1385.2490       12218.87
1385.3501       12195.99
1385.4509       12314.99
1385.5520       12173.11
1385.6531       12237.18
1385.7540       12237.18
1385.8550       12228.03
1385.9561       12255.49
1386.0570        12154.8
1386.1580       12260.07
1386.2590       12310.41
1386.3600       12209.72
1386.4609       12264.64
1386.5620       12209.72
1386.6631       12022.07
1386.7640       12012.91
1386.8650       11903.07
1386.9661       12168.53
1387.0670       12177.68
1387.1680       12282.95
1387.2690       12122.76
1387.3700       11990.03
1387.4709       12118.18
1387.5720       12205.14
1387.6731       12205.14
1387.7739       12205.14
1387.8750       12255.49
1387.9761        12273.8
1388.0770       12237.18
1388.1780       12195.99
1388.2791       12191.41
1388.3800       12223.45
1388.4810       12282.95
1388.5820       12182.26
1388.6831       12186.83
1388.7839        12214.3
1388.8850        12214.3
1388.9861       12122.76
1389.0870        12173.1
1389.1880       12104.45
1389.2891       12205.14
1389.3900       12191.41
1389.4910       12319.56
1389.5920       12324.14
1389.6930        12214.3
1389.7939       12122.76
1389.8950       11889.34
1389.9961       10983.11
1390.0969       11234.84
1390.1980       11770.34
1390.2991       11939.68
1390.4000       12008.34
1390.5010       12067.84
1390.6021       11930.53
1390.7030       11930.53
1390.8040       11999.18
1390.9050       11848.15
1391.0061        11559.8
1391.1069       11481.99
1391.2080       11633.03
1391.3091       11935.11
1391.4100       11344.69
1391.5110         10411.
1391.6121       10539.15
1391.7130       9674.122
1391.8140       11330.96
1391.9150        12035.8
1392.0160        12095.3
1392.1169        12035.8
1392.2180       12186.84
1392.3191       12200.57
1392.4200       12104.45
1392.5210       11060.92
1392.6221       10525.42
1392.7230       11752.03
1392.8240       12063.26
1392.9250       11848.15
1393.0260        12154.8
1393.1270       12342.45
1393.2280       12182.26
1393.3291       12205.14
1393.4299       12287.53
1393.5310       12383.64
1393.6321       12246.33
1393.7330       11729.15
1393.8340       11582.69
1393.9351       11280.61
1394.0360       11395.03
1394.1370       12456.87
1394.2380       12598.76
1394.3390       12566.72
1394.4399       12516.37
1394.5410       12585.03
1394.6421       12511.79
1394.7430       12456.87
1394.8440       11706.26
1394.9451       12305.84
1395.0460       12662.83
1395.1470       12488.91
1395.2480       12575.87
1395.3490       12772.68
1395.4500       12942.02
1395.5510       12964.91
1395.6521        13065.6
1395.7529       13015.25
1395.8540       12960.33
1395.9551       13115.94
1396.0560        13125.1
1396.1570       13138.83
1396.2581       13248.67
1396.3590       13212.06
1396.4600       13193.75
1396.5610       13152.56
1396.6620       13353.94
1396.7629       13207.48
1396.8640       13216.63
1396.9651       13152.56
1397.0660       13340.21
1397.1670       13271.56
1397.2681       13340.21
1397.3690        13363.1
1397.4700       13234.94
1397.5710       13308.17
1397.6720        13202.9
1397.7729       13385.98
1397.8740       13335.64
1397.9751       13317.33
1398.0759        13440.9
1398.1770        13541.6
1398.2781       13472.94
1398.3790       13472.94
1398.4800       13504.98
1398.5811        13619.4
1398.6820        13601.1
1398.7830       13042.71
1398.8840       13189.17
1398.9850       13491.25
1399.0859       13775.02
1399.1870       13683.48
1399.2881       13715.52
1399.3890       13642.29
1399.4900       13724.67
1399.5911       13843.67
1399.6920       13834.52
1399.7930       13710.94
1399.8940       13935.21
1399.9950       13871.13
1400.0959       13926.05
1400.1970        13797.9
1400.2981       13926.05
1400.3989       13944.36
1400.5000       14013.01
1400.6011       14031.32
1400.7020       14072.51
1400.8030       14132.01
1400.9041       13903.17
1401.0050       13765.86
1401.1060        13500.4
1401.2070       13912.32
1401.3081       14086.25
1401.4089       14086.25
1401.5100       14177.78
1401.6111       14150.32
1401.7120       14168.63
1401.8130       14063.36
1401.9141       14223.55
1402.0150       14086.25
1402.1160       14305.94
1402.2170       14237.28
1402.3180       14141.17
1402.4189       14049.63
1402.5200       14223.55
1402.6211       14337.97
1402.7219       14246.44
1402.8230       14200.67
1402.9241       14099.97
1403.0250       14118.28
1403.1260       14191.51
1403.2271       14113.71
1403.3280       14196.09
1403.4290       14104.55
1403.5300       14145.75
1403.6311       14113.71
1403.7319       14099.98
1403.8330       14150.32
1403.9341       14086.25
1404.0350        14035.9
1404.1360       14077.09
1404.2371       14049.63
1404.3380       14008.44
1404.4390       13894.02
1404.5400       13907.75
1404.6410       13971.82
1404.7419       13880.28
1404.8430       13843.67
1404.9441       13839.09
1405.0450       13770.44
1405.1460       13820.79
1405.2471       13761.29
1405.3480       13775.02
1405.4490       13729.25
1405.5500       13756.71
1405.6510        13738.4
1405.7520        13797.9
1405.8530       13697.21
1405.9541       13802.48
1406.0549       13839.09
1406.1560       13880.29
1406.2571       13770.44
1406.3580       13775.02
1406.4590       13820.79
1406.5601       13784.17
1406.6610       13802.48
1406.7620       13779.59
1406.8630       13779.59
1406.9640       13848.25
1407.0649       13852.82
1407.1660       13839.09
1407.2671       13825.36
1407.3680       13788.75
1407.4690       13816.21
1407.5701       13861.98
1407.6710       13875.71
1407.7720       13775.02
1407.8730       13825.36
1407.9740       13816.21
1408.0750       13953.52
1408.1760       13843.67
1408.2771       13912.33
1408.3779       13953.52
1408.4790       14026.75
1408.5801       13939.78
1408.6810       13953.52
1408.7820       13912.32
1408.8831       14113.71
1408.9840        14095.4
1409.0850       14118.28
1409.1860        14035.9
1409.2870       14072.51
1409.3879       14008.44
1409.4890       14081.67
1409.5901       14045.05
1409.6910       14086.25
1409.7920       14150.32
1409.8931       13962.67
1409.9940       14099.98
1410.0950       14196.09
1410.1960       14081.67
1410.2970       14177.78
1410.3979       13692.63
1410.4990       14099.97
1410.6001       14264.75
1410.7009       14241.86
1410.8020       14269.32
1410.9031       14342.55
1411.0040        14095.4
1411.1050       14191.51
1411.2061       14356.28
1411.3070       14145.75
1411.4080       14223.55
1411.5090       14077.09
1411.6100       14168.63
1411.7109       14099.98
1411.8120       14164.05
1411.9131       14136.59
1412.0140       14072.51
1412.1150       14058.78
1412.2161       14113.71
1412.3170       14045.05
1412.4180       13971.82
1412.5190       13926.05
1412.6200       13752.13
1412.7209       13720.09
1412.8220       13880.29
1412.9231       13834.52
1413.0239       13871.13
1413.1250       13807.05
1413.2261       13733.82
1413.3270       13665.17
1413.4280       13733.83
1413.5291       13674.33
1413.6300       13610.25
1413.7310       13550.75
1413.8320       13550.75
1413.9331        13559.9
1414.0339       13372.25
1414.1350       13486.67
1414.2361       13335.63
1414.3370       13390.56
1414.4380       13248.67
1414.5391       13093.06
1414.6400       13147.98
1414.7410       13010.68
1414.8420       12909.98
1414.9430       12868.79
1415.0439       12909.98
1415.1450       12896.25
1415.2461       12736.06
1415.3470       12722.33
1415.4480       12804.72
1415.5491       12704.02
1415.6500       12694.87
1415.7510       12552.99
1415.8521        12530.1
1415.9530       12607.91
1416.0540       12543.83
1416.1550       12520.95
1416.2561       12433.99
1416.3569        12530.1
1416.4580       12177.68
1416.5591       12250.91
1416.6600       12209.72
1416.7610       12209.72
1416.8621       12287.53
1416.9630       12241.76
1417.0640       12072.41
1417.1650       12136.49
1417.2660       12127.33
1417.3669        12035.8
1417.4680       11861.88
1417.5691       12054.11
1417.6700       12026.64
1417.7710       11889.34
1417.8721       11806.95
1417.9730       11806.95
1418.0740       11925.95
1418.1750       11806.95
1418.2760       11623.88
1418.3770       11747.46
1418.4780       11674.22
1418.5791       11591.84
1418.6799       11893.92
1418.7810        11738.3
1418.8821       11706.26
1418.9830       11463.69
1419.0840       11642.19
1419.1851       11481.99
1419.2860       11527.76
1419.3870       11600.99
1419.4880        11500.3
1419.5890       11468.26
1419.6899       11481.99
1419.7910       11395.03
1419.8921       11431.65
1419.9930       11459.11
1420.0940       11358.42
1420.1951       11404.19
1420.2960       11358.42
1420.3970       11395.03
1420.4980        11202.8
1420.5990       11294.34
1420.7000       11216.54
1420.8010        11143.3
1420.9021       11179.92
1421.0029       11038.04
1421.1040       11157.03
1421.2051       11015.15
1421.3060       11079.23
1421.4070       10973.96
1421.5081       10919.04
1421.6090       10832.08
1421.7100       10914.46
1421.8110       10882.42
1421.9120       10905.31
1422.0129       10749.69
1422.1140       10745.12
1422.2151       10681.04
1422.3160        10708.5
1422.4170       10694.77
1422.5181       10662.73
1422.6190       10653.58
1422.7200       10740.54
1422.8210       10662.73
1422.9220       10735.96
1423.0229        10470.5
1423.1240       10511.69
1423.2251       10598.65
1423.3259         10530.
1423.4270       10484.23
1423.5281       10511.69
1423.6290       10497.96
1423.7300       10511.69
1423.8311       10424.73
1423.9320       10415.58
1424.0330       10429.31
1424.1340       10475.08
1424.2350       10397.27
1424.3359       10360.66
1424.4370       10433.89
1424.5381       10433.89
1424.6390       10397.27
1424.7400       10287.43
1424.8411        10273.7
1424.9420       10278.27
1425.0430       10218.77
1425.1440       10136.39
1425.2450       10058.58
1425.3459       9985.351
1425.4470       10108.93
1425.5481         10292.
1425.6489       10067.73
1425.7500       10131.81
1425.8511       10182.16
1425.9520       10072.31
1426.0530       10227.93
1426.1541       9770.236
1426.2550       9733.622
1426.3560       9834.314
1426.4570       9889.236
1426.5581       9976.197
1426.6589       9916.697
1426.7600       9994.505
1426.8611       9921.273
1426.9620       9738.198
1427.0630       9880.082
1427.1641        9838.89
1427.2650       9829.736
1427.3660       9861.774
1427.4670       9811.429
1427.5680       9834.313
1427.6689       9825.159
1427.7700       9838.891
1427.8711        9692.43
1427.9720       9793.121
1428.0730       9774.813
1428.1741       9646.661
1428.2750       9825.158
1428.3760       9664.968
1428.4771        9646.66
1428.5780       9504.777
1428.6790       9697.006
1428.7800       9797.697
1428.8811       9756.506
1428.9819       9765.659
1429.0830       9779.391
1429.1841       9660.392
1429.2850       9642.084
1429.3860       9674.122
1429.4871       9614.622
1429.5880       9614.623
1429.6890       9669.545
1429.7900       9536.815
1429.8910       9555.123
1429.9919       9550.545
1430.0930       9536.815
1430.1941       9491.045
1430.2950       9527.661
1430.3960       9536.814
1430.4971       9468.162
1430.5980       9422.393
1430.6990       9491.046
1430.8000       9463.585
1430.9010        9426.97
1431.0020       9500.201
1431.1030       9399.509
1431.2041       9486.471
1431.3049       9413.239
1431.4060       9459.008
1431.5071        9234.74
1431.6080       9143.202
1431.7090       9106.588
1431.8101       9367.471
1431.9110       9436.123
1432.0120       9436.124
1432.1130       9385.777
1432.2140       9362.893
1432.3149       9399.508
1432.4160       9463.585
1432.5171       9422.393
1432.6180       9376.625
1432.7190       9541.394
1432.8201       9445.277
1432.9210       9390.355
1433.0220       9404.085
1433.1230        9426.97
1433.2240       9454.432
1433.3250       9417.815
1433.4260        9413.24
1433.5271       9449.854
1433.6279        9472.74
1433.7290       9271.355
1433.8301       9207.279
1433.9310       9239.317
1434.0320       9230.163
1434.1331        9221.01
1434.2340       9184.396
1434.3350       8767.897
1434.4360       8648.898
1434.5370       9211.856
1434.6379       9289.663
1434.7390       9349.162
1434.8401       9298.817
1434.9410        9353.74
1435.0420       9376.625
1435.1431       9321.701
1435.2440        9340.01
1435.3450       9344.586
1435.4460       9289.663
1435.5470       9326.278
1435.6479       9312.548
1435.7490       9285.086
1435.8501       9285.086
1435.9509       9253.049
1436.0520       9243.895
1436.1531       9225.587
1436.2540        9340.01
1436.3550       9271.356
1436.4561        9175.24
1436.5570       8973.857
1436.6580       8804.512
1436.7590       9019.627
1436.8601       9170.664
1436.9609       9179.817
1437.0620       9230.162
1437.1631       9188.972
1437.2640        9175.24
1437.3650       9211.856
1437.4661       9170.664
1437.5670       9147.779
1437.6680       8950.974
1437.7690       9097.435
1437.8700       9207.279
1437.9709       9106.588
1438.0720       9193.549
1438.1731       9188.972
1438.2739       9106.588
1438.3750       9092.856
1438.4761       9120.318
1438.5770       9083.702
1438.6780       9115.741
1438.7791       9088.279
1438.8800       9120.318
1438.9810       9092.856
1439.0820        9234.74
1439.1831       9037.936
1439.2839       9060.819
1439.3850        9028.78
1439.4861       8950.973
1439.5870       9037.934
1439.6880       8960.127
1439.7891       8978.435
1439.8900       9001.318
1439.9910       8923.512
1440.0920        8969.28
1440.1930       9033.357
1440.2939       9010.473
1440.3950       8941.819
1440.4961        8882.32
1440.5970       8928.089
1440.6980       8928.089
1440.7991       8905.205
1440.9000       8950.974
1441.0010       8854.858
1441.1021       8918.935
1441.2030       8932.666
1441.3040       8937.242
1441.4050       8790.782
1441.5061       8754.167
1441.6069       8886.896
1441.7080       8836.552
1441.8091       8626.014
1441.9100       8712.975
1442.0110       8841.128
1442.1121       8717.552
1442.2130       8772.475
1442.3140       8758.744
1442.4150       8561.938
1442.5160       8630.591
1442.6169       8639.744
1442.7180       8667.206
1442.8191       8616.859
1442.9200       8745.014
1443.0210       8598.553
1443.1221       8598.553
1443.2230       8658.053
1443.3240       8580.245
1443.4250       8507.014
1443.5260        8603.13
1443.6270       8580.245
1443.7280       8571.092
1443.8291         8529.9
1443.9299       8525.322
1444.0310       8442.938
1444.1321       8539.053
1444.2330       8648.898
1444.3340         8470.4
1444.4351       8520.745
1444.5360       8447.514
1444.6370       8479.554
1444.7380       8470.398
1444.8390       8507.015
1444.9399       8406.324
1445.0410        8456.67
1445.1421       8507.016
1445.2430         8470.4
1445.3440       8452.092
1445.4451       8456.669
1445.5460       8493.283
1445.6470       8429.209
1445.7480         8529.9
1445.8490       8401.746
1445.9500         8410.9
1446.0510        8456.67
1446.1521       8424.631
1446.2529       8287.323
1446.3540       8392.593
1446.4551       8420.054
1446.5560       8388.015
1446.6570       8282.748
1446.7581       8273.594
1446.8590       8301.054
1446.9600       8182.056
1447.0610       8200.362
1447.1620       8264.439
1447.2629       8236.979
1447.3640       8269.017
1447.4651       8163.747
1447.5660       8182.055
1447.6670       8159.171
1447.7681       8250.709
1447.8690        8278.17
1447.9700       8163.748
1448.0710       8287.324
1448.1720        8218.67
1448.2729       8333.092
1448.3740       8191.209
1448.4751       8255.285
1448.5759       8218.671
1448.6770       8159.171
1448.7781       8241.555
1448.8790       8177.479
1448.9800       8191.209
1449.0811       8200.363
1449.1820       8163.749
1449.2830       8117.979
1449.3840       8127.133
1449.4851       8246.132
1449.5859       8122.556
1449.6870       8076.787
1449.7881       8191.209
1449.8890        8085.94
1449.9900       8008.134
1450.0911       8095.095
1450.1920       8122.556
1450.2930       8140.864
1450.3940       8117.979
1450.4950       8035.595
1450.5959       8140.863
1450.6970        8085.94
1450.7981       8044.749
1450.8989       7861.673
1451.0000       7815.904
1451.1011       7802.173
1451.2020       8081.364
1451.3030        8072.21
1451.4041       8021.864
1451.5050       7934.903
1451.6060       7884.558
1451.7070       7884.557
1451.8081       7939.479
1451.9089       7838.788
1452.0100       7893.712
1452.1111        7793.02
1452.2120       7815.904
1452.3130       7760.981
1452.4141       7706.059
1452.5150       7651.136
1452.6160        7793.02
1452.7170        7806.75
1452.8180       7838.788
1452.9189       7802.174
1453.0200       7783.866
1453.1211       7843.366
1453.2220       7701.481
1453.3230       7655.713
1453.4241       7811.327
1453.5250       7829.634
1453.6260       7715.213
1453.7271       7738.098
1453.8280       7861.673
1453.9290       7788.443
1454.0300       7797.597
1454.1311       7742.673
1454.2319       7774.712
1454.3330       7806.751
1454.4341       7770.135
1454.5350       7715.212
1454.6360       7765.559
1454.7371       7788.443
1454.8380       7770.135
1454.9390       7788.442
1455.0400       7834.212
1455.1410       7870.827
1455.2419       7797.596
1455.3430        7793.02
1455.4441       7811.327
1455.5450       7747.251
1455.6460       7838.788
1455.7471       7751.827
1455.8480       7811.327
1455.9490       7751.827
1456.0500       7728.943
1456.1510       7696.905
1456.2520       7728.944
1456.3530       7793.021
1456.4541       7738.098
1456.5549       7770.135
1456.6560       7806.751
1456.7571       7834.212
1456.8580        7779.29
1456.9590       7756.404
1457.0601       7779.288
1457.1610       7811.328
1457.2620       7825.059
1457.3630       7756.405
1457.4640       7756.404
1457.5649       7770.136
1457.6660       7765.559
1457.7671       7728.943
1457.8680       7756.405
1457.9690       7802.173
1458.0701       7738.098
1458.1710        7747.25
1458.2720       7783.866
1458.3730       7724.366
1458.4740       7765.559
1458.5750        7760.98
1458.6760        7806.75
1458.7771       7811.328
1458.8779        7852.52
1458.9790       7847.942
1459.0801       7669.444
1459.1810       7815.905
1459.2820        7866.25
1459.3831       7811.327
1459.4840       7770.135
1459.5850       7733.521
1459.6860       7825.058
1459.7870        7806.75
1459.8879       7774.712
1459.9890       7847.942
1460.0901       7838.789
1460.1910       7834.211
1460.2920       7838.788
1460.3931       7902.865
1460.4940       7921.173
1460.5950        7879.98
1460.6960       7921.172
1460.7970       7870.827
1460.8979       7902.866
1460.9990       7829.635
1461.1001       7783.866
1461.2009       7815.905
1461.3020       7834.212
1461.4031       7815.905
1461.5040        7852.52
1461.6050       7898.288
1461.7061        7852.52
1461.8070       7783.866
1461.9080       7834.212
1462.0090        7866.25
1462.1101       7825.058
1462.2109       7788.443
1462.3120       7884.558
1462.4131       7847.943
1462.5140       7866.251
1462.6150        7793.02
1462.7161       7820.482
1462.8170       7751.828
1462.9180       7774.712
1463.0190       7756.405
1463.1200       7779.289
1463.2209       7788.442
1463.3220       7696.905
1463.4231       7738.098
1463.5239       7687.751
1463.6250       7706.059
1463.7261       7692.328
1463.8270       7728.943
1463.9280       7747.251
1464.0291       7738.097
1464.1300       7696.905
1464.2310       7715.212
1464.3320       7701.482
1464.4331       7733.521
1464.5339       7696.905
1464.6350       7760.982
1464.7361       7715.213
1464.8370        7719.79
1464.9380       7687.751
1465.0391       7669.444
1465.1400       7701.482
1465.2410       7646.559
1465.3420       7641.983
1465.4430       7623.675
1465.5439        7660.29
1465.6450        7513.83
1465.7461       7486.369
1465.8470       7500.099
1465.9480       7440.599
1466.0491       7500.099
1466.1500       7522.983
1466.2510       7550.444
1466.3521       7477.214
1466.4530       7486.368
1466.5540       7431.445
1466.6550       7422.292
1466.7561       7472.638
1466.8569       7486.368
1466.9580       7358.216
1467.0591       7463.484
1467.1600       7518.406
1467.2610       7390.253
1467.3621       7349.061
1467.4630       7472.637
1467.5640       7449.753
1467.6650       7294.138
1467.7660       7326.177
1467.8669       7317.023
1467.9680       7280.408
1468.0691       7202.601
1468.1700       7344.483
1468.2710       7216.331
1468.3721       7184.293
1468.4730       7321.599
1468.5740       7243.792
1468.6750        7248.37
1468.7760       7239.216
1468.8770       7230.062
1468.9780        7129.37
1469.0791       7252.947
1469.1799        7129.37
1469.2810       7266.677
1469.3821       7220.908
1469.4830        7248.37
1469.5840       7257.523
1469.6851       7170.563
1469.7860       7216.331
1469.8870       7156.831
1469.9880       7225.485
1470.0890       7129.371
1470.1899       7257.524
1470.2910       7028.679
1470.3921        6923.41
1470.4930       6593.874
1470.5940       6735.758
1470.6951       6822.719
1470.7960        7129.37
1470.8970       6905.103
1470.9980       4470.196
1471.0990       5559.497
1471.2000       4598.349
1471.3010       6122.454
1471.4021        6584.72
1471.5029       7001.217
1471.6040       7147.677
1471.7051       7133.948
1471.8060       7133.947
1471.9070        7129.37
1472.0081       7207.177
1472.1090       7088.178
1472.2100       7120.216
1472.3110       7133.947
1472.4120        7129.37
1472.5129       7097.332
1472.6140       7033.255
1472.7151       6877.642
1472.8160       6808.988
1472.9170       6859.333
1473.0181       7101.909
1473.1190       7079.025
1473.2200       6346.722
1473.3210       5550.343
1473.4220       5994.302
1473.5229       6021.763
1473.6240        6511.49
1473.7251       6914.256
1473.8259       6987.487
1473.9270       6914.256
1474.0281       7065.294
1474.1290       7120.217
1474.2300       6987.487
1474.3311       7010.371
1474.4320        6909.68
1474.5330       7033.256
1474.6340       7079.024
1474.7351       6900.526
1474.8359       6978.333
1474.9370       6946.295
1475.0381       6964.603
1475.1390       6937.142
1475.2400       6950.872
1475.3411       7014.948
1475.4420       6964.603
1475.5430       6863.911
1475.6440        6982.91
1475.7450        6923.41
1475.8459       6927.987
1475.9470       7019.524
1476.0481        6909.68
1476.1490       6964.603
1476.2500       6845.603
1476.3511       6927.987
1476.4520        6982.91
1476.5530       6941.719
1476.6541       6905.103
1476.7550       6845.603
1476.8560       6905.103
1476.9570       6841.026
1477.0581       6927.987
1477.1589       6895.949
1477.2600       6941.718
1477.3611       6895.948
1477.4620       6868.487
1477.5630       6868.487
1477.6641       6845.603
1477.7650       6891.373
1477.8660       6900.526
1477.9670       6818.142
1478.0680       6841.026
1478.1689       6831.873
1478.2700       6795.258
1478.3711       6795.258
1478.4720       6854.757
1478.5730       6836.449
1478.6741       6868.487
1478.7750       6749.489
1478.8760       6781.527
1478.9771       6873.065
1479.0780        6776.95
1479.1790       6850.181
1479.2800        6717.45
1479.3811       6767.796
1479.4819       6845.603
1479.5830       6859.333
1479.6841       6854.757
1479.7850       6841.026
1479.8860       6831.873
1479.9871       6845.603
1480.0880       6552.682
1480.1890       6374.184
1480.2900        5893.61
1480.3910       6488.606
1480.4919       6744.912
1480.5930       6786.104
1480.6941       6712.874
1480.7950        6776.95
1480.8960       6731.181
1480.9971       6786.103
1481.0980       6758.643
1481.1990       6831.873
1481.3000       6818.142
1481.4010       6818.142
1481.5020       6827.296
1481.6030       6772.373
1481.7041       6795.258
1481.8049       6781.526
1481.9060       6754.065
1482.0071       6804.412
1482.1080        6776.95
1482.2090       6799.834
1482.3101        6703.72
1482.4110       6635.066
1482.5120       6387.914
1482.6130       6456.567
1482.7140       6740.335
1482.8149       6786.103
1482.9160       6685.413
1483.0171       6744.912
1483.1180       6767.796
1483.2190       6795.257
1483.3201       6767.796
1483.4210       6763.219
1483.5220       6831.873
1483.6230       6708.296
1483.7240       6744.912
1483.8250       6799.834
1483.9260       6758.643
1484.0271       6799.833
1484.1279       6767.796
1484.2290       6735.758
1484.3301       6786.104
1484.4310        6763.22
1484.5320       6740.335
1484.6331       6786.104
1484.7340        6822.72
1484.8350       6831.873
1484.9360       6831.873
1485.0370        6776.95
1485.1379       6822.719
1485.2390       6795.258
1485.3401       6781.527
1485.4410       6827.296
1485.5420        6850.18
1485.6431        6776.95
1485.7440       6827.296
1485.8450       6818.142
1485.9460       6818.142
1486.0470       6836.448
1486.1479       6822.719
1486.2490       6808.987
1486.3501       6859.334
1486.4509       6831.872
1486.5520       6831.873
1486.6531       6845.603
1486.7540       6795.258
1486.8550       6813.565
1486.9561       6799.834
1487.0570       6827.295
1487.1580       6781.527
1487.2590       6799.834
1487.3601       6836.449
1487.4609       6845.603
1487.5620       6854.757
1487.6631       6841.026
1487.7640        6763.22
1487.8650       6671.681
1487.9661       6790.681
1488.0670        6776.95
1488.1680        6909.68
1488.2690       6822.719
1488.3700       6937.141
1488.4709        6836.45
1488.5720       6790.681
1488.6731       6708.296
1488.7740       6818.142
1488.8750       6790.681
1488.9761       6822.719
1489.0770       6854.756
1489.1780       6818.142
1489.2791       6882.219
1489.3800       6863.911
1489.4810       6813.565
1489.5820       6831.872
1489.6831       6905.103
1489.7839       6708.296
1489.8850       6813.565
1489.9861       6680.835
1490.0870       6767.796
1490.1880       6671.681
1490.2891       6740.334
1490.3900       6754.065
1490.4910        6776.95
1490.5920       6744.912
1490.6930        6763.22
1490.7939       6671.681
1490.8950       6397.068
1490.9961       6369.606
1491.0970       6351.298
1491.1980       5019.423
1491.2991       4342.044
1491.4000       4543.427
1491.5010        6584.72
1491.6021       6548.104
1491.7030       6580.145
1491.8040       6474.875
1491.9050       6758.643
1492.0061       6621.335
1492.1069       6758.643
1492.2080       6479.452
1492.3091       6593.874
1492.4100       6685.413
1492.5110       6337.568
1492.6121       6094.993
1492.7130       6461.144
1492.8140       6557.259
1492.9150       6662.528
1493.0160       6735.758
1493.1169       6657.951
1493.2180       6488.606
1493.3191       6561.836
1493.4200       6273.492
1493.5210       5802.072
1493.6221       4845.501
1493.7230       6323.838
1493.8240       6744.912
1493.9250       6694.565
1494.0260       6566.413
1494.1270       6722.026
1494.2280       6776.951
1494.3291       6781.526
1494.4299       6781.526
1494.5310       6708.296
1494.6321       6689.989
1494.7330       6726.604
1494.8340       6415.376
1494.9351       6557.259
1495.0360       6635.067
1495.1370       6667.104
1495.2380       6754.065
1495.3390        6776.95
1495.4399       6689.989
1495.5410       6868.487
1495.6421       6767.796
1495.7430       6808.988
1495.8440       6804.411
1495.9451       6763.219
1496.0460       6676.259
1496.1470        6763.22
1496.2480       6804.411
1496.3490       6722.027
1496.4500       6772.374
1496.5510        6703.72
1496.6521       6731.181
1496.7529       6795.258
1496.8540       6689.989
1496.9551       6667.104
1497.0560       6534.374
1497.1570       6749.488
1497.2581       6699.142
1497.3590       6735.758
1497.4600       6561.836
1497.5610       6566.413
1497.6621       6616.759
1497.7629       6566.413
1497.8640       6538.951
1497.9651       6557.259
1498.0660       6479.452
1498.1670       6529.798
1498.2681       6493.183
1498.3690       6502.336
1498.4700       6543.528
1498.5710       6470.298
1498.6720       6342.146
1498.7729       6456.567
1498.8740       6520.644
1498.9751       6461.145
1499.0759        6511.49
1499.1770       6442.836
1499.2781       6493.182
1499.3790       6447.413
1499.4800       6534.374
1499.5811        6305.53
1499.6820       6328.415
1499.7830       6415.376
1499.8840        6365.03
1499.9851       6456.568
1500.0859       6314.684
1500.1870       6369.606
1500.2881       6342.145
1500.3890       5866.149
1500.4900       6241.454
1500.5911       6369.606
1500.6920       6365.029
1500.7930       6410.798
1500.8940       6374.183
1500.9950       6461.145
1501.0959       6168.223
1501.1970       5911.917
1501.2981       5980.571
1501.3990       6241.454
1501.5000       6104.147
1501.6011       6259.761
1501.7020       6355.876
1501.8030       6447.413
1501.9041       6291.799
1502.0050        6378.76
1502.1060       6387.914
1502.2070       6392.491
1502.3081       6346.722
1502.4089         6232.3
1502.5100       6401.645
1502.6111       6328.415
1502.7120       6319.261
1502.8130        6365.03
1502.9141       6387.914
1503.0150       6392.491
1503.1160       6351.299
1503.2170       6392.491
1503.3180       6383.337
1503.4189       6163.646
1503.5200       6163.646
1503.6211       6314.684
1503.7220       6273.491
1503.8230       6273.492
1503.9241        6378.76
1504.0250       6369.606
1504.1260       6419.952
1504.2271       6314.684
1504.3280       6355.876
1504.4290       6392.491
1504.5300       6300.953
1504.6311       6296.375
1504.7319       6204.838
1504.8330       6392.491
1504.9341       6337.568
1505.0350       6342.146
1505.1360       6236.876
1505.2371         6291.8
1505.3380       6259.761
1505.4390         6113.3
1505.5400       6227.723
1505.6410       6296.376
1505.7419       6291.799
1505.8430       6021.763
1505.9441       6255.184
1506.0450       6337.568
1506.1460       6374.184
1506.2471       6369.606
1506.3480       6429.106
1506.4490       6442.837
1506.5500       6397.068
1506.6510       6419.953
1506.7520       6410.799
1506.8530       6415.376
1506.9541       6401.646
1507.0549       6392.491
1507.1560       6438.261
1507.2571       5756.303
1507.3580       6213.992
1507.4590       6278.069
1507.5601       6319.261
1507.6610       6181.953
1507.7620       6282.645
1507.8630       6337.568
1507.9640       6351.299
1508.0649       6360.452
1508.1660       6195.685
1508.2671       6346.722
1508.3680       6351.299
1508.4690       6387.914
1508.5701       6410.799
1508.6710       6410.799
1508.7720       6410.798
1508.8730       6410.799
1508.9740       6419.952
1509.0750       6410.799
1509.1760        6424.53
1509.2771       6415.376
1509.3779       6406.222
1509.4790       6392.491
1509.5801       6328.415
1509.6810       6410.799
1509.7820        6438.26
1509.8831       6323.837
1509.9840       6360.453
1510.0850       6429.106
1510.1860       6442.837
1510.2871       6461.145
1510.3879       6488.606
1510.4890       6433.683
1510.5901       6429.106
1510.6910       6397.068
1510.7920       6433.683
1510.8931       6493.182
1510.9940       6484.028
1511.0950        6438.26
1511.1960       6488.605
1511.2970       6387.915
1511.3979       6465.721
1511.4990       6502.336
1511.6001       6470.298
1511.7009       6470.298
1511.8020       5902.764
1511.9031       5367.268
1512.0040       6154.493
1512.1050       6470.298
1512.2061       6456.567
1512.3070       6488.605
1512.4080       6479.452
1512.5090       6506.913
1512.6101       6461.145
1512.7109       6456.567
1512.8120       6419.952
1512.9131       6474.875
1513.0140       6465.722
1513.1150       6461.145
1513.2161        6584.72
1513.3170        6525.22
1513.4180       6543.528
1513.5190       6502.336
1513.6200       6529.798
1513.7209       6516.067
1513.8220       6534.374
1513.9231       6635.067
1514.0240       6506.914
1514.1250        5820.38
1514.2261       6278.068
1514.3270       6548.104
1514.4280       6534.375
1514.5291       6516.067
1514.6300       6506.914
1514.7310       6543.528
1514.8320       6580.143
1514.9331       6566.413
1515.0339       6474.875
1515.1350        6511.49
1515.2361       6534.374
1515.3370       6529.797
1515.4380       6557.259
1515.5391       6589.298
1515.6400       6557.259
1515.7410       6575.566
1515.8420       6561.836
1515.9430       6552.683
1516.0439        6584.72
1516.1450       6552.682
1516.2461       6548.104
1516.3470       6506.913
1516.4480        6584.72
1516.5491        6570.99
1516.6500       6603.028
1516.7510       6557.259
1516.8521       6676.259
1516.9530       6616.759
1517.0540       6616.759
1517.1550       6630.489
1517.2561       6630.489
1517.3569       6662.528
1517.4580       6667.104
1517.5591       6607.604
1517.6600       6635.065
1517.7610       6589.298
1517.8621       6278.068
1517.9630       5875.302
1518.0640       5797.495
1518.1650       5197.923
1518.2660       2849.977
1518.3669       3339.704
1518.4680       4895.848
1518.5691       5632.728
1518.6700       5056.039
1518.7710       5385.574
1518.8721        6305.53
1518.9730       5312.345
1519.0740       2730.978
1519.1750       3632.625
1519.2760       3335.127
1519.3770       4072.007
1519.4780       6136.185
1519.5791       6223.146
1519.6799       6529.798
1519.7810       6873.065
1519.8821       6603.028
1519.9830       6685.412
1520.0840       6758.642
1520.1851       6566.413
1520.2860       6424.529
1520.3870       6397.068
1520.4880       5275.729
1520.5890       4300.852
1520.6899       5747.149
1520.7910       6241.453
1520.8921       6419.952
1520.9930       5802.071
1521.0940       6575.567
1521.1951       6520.644
1521.2960       5646.458
1521.3970       3527.357
1521.4980       5811.226
1521.5990       4264.236
1521.7000       6488.606
1521.8010        6584.72
1521.9021       6854.756
1522.0029       6992.064
1522.1040       7042.409
1522.2051       6927.987
1522.3060       7124.793
1522.4070       7101.909
1522.5081       7143.101
1522.6090       7106.487
1522.7100       7179.716
1522.8110       7046.986
1522.9121       7083.602
1523.0129       7138.524
1523.1140       7156.831
1523.2151       7156.831
1523.3160       7111.063
1523.4170       7083.602
1523.5181        7129.37
1523.6190       7033.255
1523.7200       7111.063
1523.8210       7060.717
1523.9220       7088.179
1524.0229       7069.871
1524.1240       6964.603
1524.2251       7220.908
1524.3259        7129.37
1524.4270       7161.409
1524.5281       7271.254
1524.6290       7170.563
1524.7300       7120.216
1524.8311       7220.908
1524.9320       7202.601
1525.0330       7298.716
1525.1340       7289.562
1525.2351        7248.37
1525.3359        7115.64
1525.4370       7120.216
1525.5381        7335.33
1525.6390       7298.716
1525.7400       7312.447
1525.8411       7298.716
1525.9420       7362.792
1526.0430        7307.87
1526.1440       7399.407
1526.2450       7353.638
1526.3459       7403.984
1526.4470         7381.1
1526.5481       7266.678
1526.6490       7472.637
1526.7500       7335.331
1526.8511       7513.829
1526.9520       7472.638
1527.0530       7564.175
1527.1541        7454.33
1527.2550       7490.944
1527.3560       7536.714
1527.4570       7353.638
1527.5581       7344.484
1527.6589        7468.06
1527.7600       7641.982
1527.8611       7605.367
1527.9620       7641.983
1528.0630       7628.251
1528.1641       7582.483
1528.2650       7655.712
1528.3660       7555.022
1528.4670       7628.251
1528.5680       7683.174
1528.6689       7481.791
1528.7700       7532.138
1528.8711       7486.369
1528.9720       7623.675
1529.0730       7678.597
1529.1741       7742.673
1529.2750       7765.559
1529.3760       7628.251
1529.4771       7326.177
1529.5780       6808.988
1529.6790       7545.867
1529.7800       7591.637
1529.8811       7779.289
1529.9819       7829.635
1530.0830       7765.559
1530.1841       7857.096
1530.2850       7902.865
1530.3860       7957.788
1530.4871       7921.173
1530.5880       7976.095
1530.6890       8040.172
1530.7900       8117.979
1530.8910        7939.48
1530.9919       8040.172
1531.0930       8186.633
1531.1941       8319.362
1531.2950       8117.979
1531.3960       8200.362
1531.4971       8214.093
1531.5980       8246.133
1531.6990       8310.209
1531.8000       8282.748
1531.9010       8305.632
1532.0020       8328.517
1532.1030       8209.518
1532.2041       8465.822
1532.3049       8433.784
1532.4060       8525.322
1532.5071       8493.283
1532.6080       8580.244
1532.7090       8571.091
1532.8101       8635.167
1532.9110       8552.783
1533.0120       8708.397
1533.1130       8726.705
1533.2140       8731.283
1533.3149       8717.552
1533.4160       8378.862
1533.5171       6822.719
1533.6180        6909.68
1533.7190       8516.168
1533.8201       8694.667
1533.9210       8699.244
1534.0220       8749.591
1534.1230       8488.706
1534.2240        8085.94
1534.3250       8712.975
1534.4260       8964.705
1534.5271        8941.82
1534.6279       8978.435
1534.7290        8882.32
1534.8301       9005.896
1534.9310       8987.588
1535.0320        9015.05
1535.1331       9019.627
1535.2340       9056.242
1535.3350       9060.818
1535.4360       9170.663
1535.5371       9138.626
1535.6379        9074.55
1535.7390        8424.63
1535.8401       7934.903
1535.9410       8497.861
1536.0420       8973.857
1536.1431       8964.704
1536.2440       9129.473
1536.3450       8964.703
1536.4460       8909.781
1536.5470        8896.05
1536.6479       9147.779
1536.7490       9266.779
1536.8501       9198.125
1536.9510       9303.393
1537.0520       9372.047
1537.1531       9111.165
1537.2540       9156.933
1537.3550       9326.279
1537.4561       9404.085
1537.5570       9459.008
1537.6580       9390.354
1537.7590       9280.509
1537.8601       9518.509
1537.9609       9509.354
1538.0620       9555.123
1538.1631       9582.584
1538.2640         9559.7
1538.3650       9605.469
1538.4661       9706.161
1538.5670       9701.584
1538.6680       9774.813
1538.7690        9793.12
1538.8700       9866.352
1538.9709       9875.506
1539.0720       9944.159
1539.1731       10017.39
1539.2740       9921.274
1539.3750       9994.505
1539.4761       9980.774
1539.5770       10063.16
1539.6780       10127.24
1539.7791       10209.62
1539.8800       10159.27
1539.9810       10205.04
1540.0820       10168.43
1540.1831       10319.46
1540.2839       10305.73
1540.3850       10310.31
1540.4861       10346.92
1540.5870       10429.31
1540.6880       10433.88
1540.7891       10365.23
1540.8900       10424.73
1540.9910       10475.08
1541.0920       10571.19
1541.1930       10662.73
1541.2939       10621.54
1541.3950       10607.81
1541.4961       10694.77
1541.5970        10470.5
1541.6980       10758.84
1541.7991       10786.31
1541.9000       10809.19
1542.0010       10873.27
1542.1021       10955.65
1542.2030       10882.42
1542.3040       10845.81
1542.4050       10919.04
1542.5061        11065.5
1542.6069       10932.77
1542.7080       11088.38
1542.8091       10919.04
1542.9100       11015.15
1543.0110       10973.96
1543.1121       11120.42
1543.2130       11056.34
1543.3140       10992.27
1543.4150       10896.15
1543.5160       10969.38
1543.6169       11111.27
1543.7180       11175.34
1543.8191       11157.04
1543.9200       11120.42
1544.0210       11092.96
1544.1221       11097.54
1544.2230       11422.49
1544.3240       10488.81
1544.4250       5138.423
1544.5260       7797.596
1544.6270       4946.193
1544.7280       7953.211
1544.8291       10653.58
1544.9299        11440.8
1545.0310        11440.8
1545.1321        11440.8
1545.2330        11440.8
1545.3340        11440.8
1545.4351        11440.8
1545.5360        11440.8
1545.6370        11440.8
1545.7380        11440.8
1545.8391        11440.8
1545.9399        11440.8
1546.0410        11440.8
1546.1421        11440.8
1546.2430        11440.8
1546.3440        11440.8
1546.4451        11440.8
1546.5460        11440.8
1546.6470        11440.8
1546.7480        11440.8
1546.8490        11440.8
1546.9500        11440.8
1547.0510        11440.8
1547.1521        11440.8
1547.2529        11440.8
1547.3540        11440.8
1547.4551        11440.8
1547.5560        11440.8
1547.6570        11440.8
1547.7581        11440.8
1547.8590        11440.8
1547.9600        11440.8
1548.0610        11440.8
1548.1621        11440.8
1548.2629        11440.8
1548.3640        11440.8
1548.4651        11440.8
1548.5660        11440.8
1548.6670        11440.8
1548.7681        11440.8
1548.8690        11440.8
1548.9700        11440.8
1549.0710        11440.8
1549.1720        11440.8
1549.2729        11440.8
1549.3740        11440.8
1549.4751        11440.8
1549.5760        11440.8
1549.6770        11440.8
1549.7781        11440.8
1549.8790        11440.8
1549.9800        11440.8
1550.0811        11440.8
1550.1820        11440.8
1550.2830        11440.8
1550.3840        11440.8
1550.4851        11440.8
1550.5859        11440.8
1550.6870        11440.8
1550.7881        11440.8
1550.8890        11440.8
1550.9900        11440.8
1551.0911        11440.8
1551.1920        11440.8
1551.2930        11440.8
1551.3940        11440.8
1551.4950        11440.8
1551.5959        11440.8
1551.6970        11440.8
1551.7981        11440.8
1551.8990        11440.8
1552.0000        11440.8
1552.1011        11440.8
1552.2020        11440.8
1552.3030        11440.8
1552.4041        11440.8
1552.5050        11440.8
1552.6060       12209.72
1552.7070       12694.87
1552.8081       12607.91
1552.9089       12447.72
1553.0100       12136.49
1553.1111       12456.87
1553.2120       12246.33
1553.3130       12328.72
1553.4141       12022.07
1553.5150        11976.3
1553.6160       11710.84
1553.7170       11761.18
1553.8180       11655.92
1553.9189       11637.61
1554.0200       11715.42
1554.1211       11614.72
1554.2220       11532.34
1554.3230       11486.57
1554.4241       11367.57
1554.5250       11198.23
1554.6260       11266.88
1554.7271       11198.23
1554.8280       11028.88
1554.9290       10919.04
1555.0300       11102.11
1555.1311         11006.
1555.2319       10978.54
1555.3330       10832.08
1555.4341       10612.38
1555.5350       10658.15
1555.6360       10539.16
1555.7371         10530.
1555.8380       10378.96
1555.9390       10333.19
1556.0400       10429.31
1556.1410       10209.62
1556.2419       10168.43
1556.3430       10081.46
1556.4441        10154.7
1556.5450       10058.58
1556.6460       10136.39
1556.7471       9999.081
1556.8480       10017.39
1556.9490       9976.196
1557.0500       9774.814
1557.1510        9706.16
1557.2520       9802.275
1557.3530       9687.854
1557.4541       9674.123
1557.5549       9504.777
1557.6560       9669.545
1557.7571       9463.586
1557.8580       9426.971
1557.9590       9426.971
1558.0601       9463.586
1558.1610       9390.355
1558.2620       9362.893
1558.3630       9202.702
1558.4641       9394.932
1558.5649       9303.394
1558.6660       9143.203
1558.7671       9408.662
1558.8680        9074.55
1558.9690       9120.318
1559.0701       8960.127
1559.1710       9047.088
1559.2720       8859.436
1559.3730       8891.474
1559.4740       8827.396
1559.5750       8877.743
1559.6760       8937.243
1559.7771       8795.358
1559.8779       8841.128
1559.9790       8886.896
1560.0801       8722.129
1560.1810       8676.359
1560.2820       8561.937
1560.3831       8575.668
1560.4840       8566.515
1560.5850       8612.283
1560.6860        8822.82
1560.7871        8616.86
1560.8879       8635.168
1560.9890       8598.553
1561.0901       8333.093
1561.1910       8461.246
1561.2920        8397.17
1561.3931       8378.861
1561.4940       8415.478
1561.5950       8461.245
1561.6960         8410.9
1561.7970       8424.631
1561.8979       8333.093
1561.9990       8314.784
1562.1001       8241.557
1562.2010       8209.518
1562.3020       8282.747
1562.4031       8172.902
1562.5040        8218.67
1562.6050       8044.749
1562.7061       8081.364
1562.8070       8204.939
1562.9080       8168.325
1563.0090       8067.632
1563.1101       7976.095
1563.2109       8099.672
1563.3120       8127.133
1563.4131       7948.633
1563.5140       7902.866
1563.6150       7898.288
1563.7161       7907.442
1563.8170       7889.134
1563.9180       7921.173
1564.0190       7907.442
1564.1200       7756.405
1564.2209       7825.059
1564.3220       7806.751
1564.4231       7738.097
1564.5240       7783.866
1564.6250       7870.827
1564.7261       7518.406
1564.8270       7678.598
1564.9280       7564.175
1565.0291       7568.752
1565.1300       7582.483
1565.2310       7564.175
1565.3320       7568.751
1565.4331       7651.136
1565.5339        7527.56
1565.6350       7413.138
1565.7361       7509.252
1565.8370       7445.176
1565.9380       7399.407
1566.0391       7413.138
1566.1400       7486.367
1566.2410       7431.445
1566.3420       7216.331
1566.4430       7403.983
1566.5439       7440.599
1566.6450       7536.714
1566.7461         7321.6
1566.8470       7344.484
1566.9480       7330.753
1567.0491       7294.139
1567.1500       7280.408
1567.2510       7042.409
1567.3521       7303.292
1567.4530       7243.792
1567.5540       7266.677
1567.6550       7257.523
1567.7561       7307.869
1567.8569       7234.639
1567.9580       7339.908
1568.0591       7120.216
1568.1600       7220.908
1568.2610       7193.447
1568.3621       7165.985
1568.4630       7198.023
1568.5640        7069.87
1568.6650       7211.754
1568.7660        7069.87
1568.8669       7124.794
1568.9680       7097.332
1569.0691       7074.448
1569.1700       7161.409
1569.2710       7101.909
1569.3721       7069.871
1569.4730        7115.64
1569.5740       7074.448
1569.6750       6964.603
1569.7760       7014.948
1569.8770       7060.717
1569.9780       6841.026
1570.0791        6923.41
1570.1799       6804.411
1570.2810       6841.026
1570.3821       6859.333
1570.4830       6900.526
1570.5840       6799.834
1570.6851       6790.681
1570.7860        6763.22
1570.8870       6635.065
1570.9880       6671.681
1571.0891       6689.989
1571.1899       6657.951
1571.2910       6758.642
1571.3921       6699.143
1571.4930       6461.144
1571.5940       6392.491
1571.6951       6612.181
1571.7960       6529.798
1571.8970       6566.413
1571.9980       6474.875
1572.0990       6419.952
1572.2000       6520.644
1572.3010       6470.298
1572.4021       6451.991
